"time","x","y","position","velocity","acceleration","jerk","heading"
0,9.45969,195,0,0,0,0,0
0.02,9.46209,195,0.0024,0.12,6,300,0
0.04,9.47889,195,0.0192,0.84,36,1500,0
0.06,9.52419,195,0.0645,2.265,71.25,1762.5,0
0.08,9.60519,195,0.1455,4.05,89.25,900,0
0.1,9.72219,195,0.2625,5.85,90,37.5,0
0.12,9.87519,195,0.4155,7.65,90,2.36611e-10,0
0.14,10.0642,195,0.60451,9.4505,90.025,1.25,0
0.16,10.2892,195,0.82951,11.25,89.975,-2.5,0
0.18,10.5502,195,1.09051,13.05,90,1.25,0
0.2,10.8472,195,1.38751,14.85,90,-2.81375e-10,0
0.22,11.1802,195,1.72051,16.65,90,-1.1795e-10,0
0.24,11.5492,195,2.08951,18.45,90,6.25988e-10,0
0.26,11.9542,195,2.49451,20.25,90,-7.52465e-10,0
0.28,12.3952,195,2.93551,22.05,90,5.06617e-10,0
0.3,12.8722,195,3.41251,23.85,90,-2.54374e-10,0
0.32,13.3852,195,3.92551,25.65,90,9.45022e-11,0
0.34,13.9342,195,4.47451,27.45,90,1.59872e-10,0
0.36,14.5192,195,5.05951,29.25,90,-2.18847e-10,0
0.38,15.1402,195,5.68051,31.05,90,1.42109e-11,0
0.4,15.7972,195,6.33751,32.85,90,-8.52651e-12,0
0.42,16.4902,195,7.03051,34.65,90,4.65405e-10,0
0.44,17.2192,195,7.75951,36.45,90,-9.36495e-10,0
0.46,17.9842,195,8.52451,38.25,90,6.92779e-10,0
0.48,18.7852,195,9.32551,40.05,90,-1.47082e-10,0
0.5,19.6222,195,10.1625,41.85,90,-1.37135e-10,0
0.52,20.4952,195,11.0355,43.65,90,2.84217e-10,0
0.54,21.4042,195,11.9445,45.45,90,-4.61853e-10,0
0.56,22.3492,195,12.8895,47.25,90,4.61853e-10,0
0.58,23.3302,195,13.8705,49.05,90,7.00595e-10,0
0.6,24.3472,195,14.8875,50.85,90,-1.8197e-09,0
0.62,25.4002,195,15.9405,52.65,90,1.10134e-09,0
0.64,26.4892,195,17.0295,54.45,90,-4.26326e-10,0
0.66,27.6142,195,18.1545,56.25,90,4.44089e-10,0
0.68,28.7752,195,19.3155,58.05,90,0,0
0.7,29.9722,195,20.5125,59.85,90,3.98614e-10,0
0.72,31.2052,195,21.7455,61.65,90,-1.2335e-09,0
0.74,32.4742,195,23.0145,63.45,90,8.34888e-10,0
0.76,33.7792,195,24.3195,65.25,90,-4.44089e-10,0
0.78,35.1202,195,25.6605,67.05,90,-4.44089e-10,0
0.8,36.4972,195,27.0375,68.85,90,1.77636e-09,0
0.82,37.9102,195,28.4505,70.65,90,9.66338e-11,0
0.84,39.3592,195,29.8995,72.45,90,-2.86775e-09,0
0.86,40.8442,195,31.3845,74.25,90,1.88294e-09,0
0.88,42.3652,195,32.9055,76.05,90,0,0
0.9,43.9222,195,34.4625,77.85,90,-8.88178e-10,0
0.92,45.5152,195,36.0555,79.65,90,1.77636e-09,0
0.94,47.1442,195,37.6845,81.45,90,-6.13909e-10,0
0.96,48.8092,195,39.3495,83.25,90,-1.41114e-09,0
0.98,50.5102,195,41.0505,85.05,90,1.13687e-09,0
1,52.2472,195,42.7875,86.85,90,0,0
1.02,54.0178,195,44.5581,88.53,84,-300,0
1.04,55.81,195,46.3503,89.61,54,-1500,0
1.06,57.6097,195,48.15,89.985,18.75,-1762.5,0
1.08,59.4097,195,49.95,90,0.75,-900,0
1.1,61.2097,195,51.75,90,-1.77636e-11,-37.5,0
1.12,63.0097,195,53.55,90,1.77636e-11,1.77636e-09,0
1.14,64.8097,195,55.35,90,5.04485e-11,1.63425e-09,0
1.16,66.6097,195,57.15,90,-6.82121e-11,-5.93303e-09,0
1.18,68.4097,195,58.95,90,0,3.41061e-09,0
1.2,70.2097,195,60.75,90,0,0,0
1.22,72.0097,195,62.55,90,0,0,0
1.24,73.8097,195,64.35,90,3.55271e-11,1.77636e-09,0
1.26,75.6097,195,66.15,90,-3.55271e-11,-3.55271e-09,0
1.28,77.4097,195,67.95,90,0,1.77636e-09,0
1.3,79.2097,195,69.75,90,0,0,0
1.32,81.0097,195,71.55,90,0,0,0
1.34,82.8097,195,73.35,90,3.55271e-11,1.77636e-09,0
1.36,84.6097,195,75.15,90,-3.55271e-11,-3.55271e-09,0
1.38,86.4097,195,76.95,90,5.04485e-11,4.29878e-09,0
1.4,88.2097,195,78.75,90,-5.04485e-11,-5.04485e-09,0
1.42,90.0097,195,80.55,90,0,2.52243e-09,0
1.44,91.8097,195,82.35,90,3.55271e-11,1.77636e-09,0
1.46,93.6097,195,84.15,90,-3.55271e-11,-3.55271e-09,0
1.48,95.4097,195,85.95,90,0,1.77636e-09,0
1.5,97.2097,195,87.75,90,0,0,0
1.52,99.0097,195,89.55,90,0,0,0
1.54,100.81,195,91.3503,90.015,0.75,37.5,0
1.56,102.61,195,93.1503,90,-0.75,-75,0
1.58,104.41,195,94.9503,90,0,37.5,0
1.6,106.21,195,96.7503,90,0,0,0
1.62,108.01,195,98.5503,90,3.55271e-11,1.77636e-09,0
1.64,109.81,195,100.35,90,1.49214e-11,-1.03029e-09,0
1.66,111.61,195,102.15,90,-5.04485e-11,-3.2685e-09,0
1.68,113.41,195,103.95,90,0,2.52243e-09,0
1.7,115.21,195,105.75,90,0,0,0
1.72,117.01,195,107.55,90,3.55271e-11,1.77636e-09,0
1.74,118.81,195,109.35,90,-3.55271e-11,-3.55271e-09,0
1.76,120.61,195,111.15,90,0,1.77636e-09,0
1.78,122.41,195,112.95,90,0,0,0
1.8,124.21,195,114.75,90,0,0,0
1.82,126.01,195,116.55,90,3.55271e-11,1.77636e-09,0
1.84,127.81,195,118.35,90,-3.55271e-11,-3.55271e-09,0
1.86,129.61,195,120.15,90,3.55271e-11,3.55271e-09,0
1.88,131.41,195,121.95,90,-2.06057e-11,-2.80664e-09,0
1.9,133.21,195,123.75,90,2.06057e-11,2.06057e-09,0
1.92,135.01,195,125.55,90,-7.10543e-11,-4.583e-09,0
1.94,136.81,195,127.35,90,7.10543e-11,7.10543e-09,0
1.96,138.61,195,129.15,90,0,-3.55271e-09,0
1.98,140.41,195,130.95,90,-7.10543e-11,-3.55271e-09,0
2,142.21,195,132.75,90,7.10543e-11,7.10543e-09,0
2.02,144.01,195,134.55,90,-7.10543e-11,-7.10543e-09,0
2.04,145.81,195,136.35,90,7.10543e-11,7.10543e-09,0
2.06,147.61,195,138.15,90,0,-3.55271e-09,0
2.08,149.41,195,139.95,90,-7.10543e-11,-3.55271e-09,0
2.1,151.21,195,141.75,90,7.10543e-11,7.10543e-09,0
2.12,153.01,195,143.55,90,-7.10543e-11,-7.10543e-09,0
2.14,154.81,195,145.35,90,7.10543e-11,7.10543e-09,0
2.16,156.61,195,147.15,90,0,-3.55271e-09,0
2.18,158.41,195,148.95,90,-7.10543e-11,-3.55271e-09,0
2.2,160.21,195,150.75,90,7.10543e-11,7.10543e-09,0
2.22,162.01,195,152.55,90,-7.10543e-11,-7.10543e-09,0
2.24,163.81,195,154.35,90,7.10543e-11,7.10543e-09,0
2.26,165.61,195,156.15,90,1.00187e-10,1.45661e-09,0
2.28,167.41,195,157.95,90,-1.71241e-10,-1.35714e-08,0
2.3,169.21,195,159.75,90,7.10543e-11,1.21148e-08,0
2.32,171.01,195,161.55,90,-7.10543e-11,-7.10543e-09,0
2.34,172.81,195,163.35,90,7.10543e-11,7.10543e-09,0
2.36,174.61,195,165.15,90,0,-3.55271e-09,0
2.38,176.41,195,166.95,90,-7.10543e-11,-3.55271e-09,0
2.4,178.21,195,168.75,90,7.10543e-11,7.10543e-09,0
2.42,180.01,195,170.55,90,-7.10543e-11,-7.10543e-09,0
2.44,181.81,195,172.35,90,7.10543e-11,7.10543e-09,0
2.46,183.61,195,174.15,90,0,-3.55271e-09,0
2.48,185.41,195,175.95,90,-7.10543e-11,-3.55271e-09,0
2.5,187.21,195,177.75,90,7.10543e-11,7.10543e-09,0
2.52,189.01,195,179.55,90,-7.10543e-11,-7.10543e-09,0
2.54,190.81,195,181.35,90,7.10543e-11,7.10543e-09,0
2.56,192.61,195,183.15,90,0,-3.55271e-09,0
2.58,194.41,195,184.95,90,-7.10543e-11,-3.55271e-09,0
2.6,196.21,195,186.75,90,7.10543e-11,7.10543e-09,0
2.62,198.01,195,188.55,90,-7.10543e-11,-7.10543e-09,0
2.64,199.81,195,190.35,90,7.10543e-11,7.10543e-09,0
2.66,201.61,195,192.15,90,0,-3.55271e-09,0
2.68,203.41,195,193.95,90,-7.10543e-11,-3.55271e-09,0
2.7,205.21,195,195.75,90,7.10543e-11,7.10543e-09,0
2.72,207.01,195,197.55,90,-7.10543e-11,-7.10543e-09,0
2.74,208.81,195,199.35,90,7.10543e-11,7.10543e-09,0
2.76,210.61,195,201.15,90,1.00187e-10,1.45661e-09,0
2.78,212.41,195,202.95,90,-1.71241e-10,-1.35714e-08,0
2.8,214.21,195,204.75,90,7.10543e-11,1.21148e-08,0
2.82,216.01,195,206.55,90,-7.10543e-11,-7.10543e-09,0
2.84,217.81,195,208.35,90,7.10543e-11,7.10543e-09,0
2.86,219.61,195,210.15,90,0,-3.55271e-09,0
2.88,221.41,195,211.95,90,-7.10543e-11,-3.55271e-09,0
2.9,223.21,195,213.75,90,7.10543e-11,7.10543e-09,0
2.92,225.01,195,215.55,90,-7.10543e-11,-7.10543e-09,0
2.94,226.81,195,217.35,90,7.10543e-11,7.10543e-09,0
2.96,228.61,195,219.15,90,0,-3.55271e-09,0
2.98,230.41,195,220.95,90,-7.10543e-11,-3.55271e-09,0
3,232.21,195,222.75,90,7.10543e-11,7.10543e-09,0
3.02,234.01,195,224.55,90,-7.10543e-11,-7.10543e-09,0
3.04,235.81,195,226.35,90,7.10543e-11,7.10543e-09,0
3.06,237.61,195,228.15,90,0,-3.55271e-09,0
3.08,239.41,195,229.95,90,-7.10543e-11,-3.55271e-09,0
3.1,241.21,195,231.75,90,7.10543e-11,7.10543e-09,0
3.12,243.01,195,233.55,90,-7.10543e-11,-7.10543e-09,0
3.14,244.81,195,235.35,90,7.10543e-11,7.10543e-09,0
3.16,246.61,195,237.15,90,0,-3.55271e-09,0
3.18,248.41,195,238.95,90,-7.10543e-11,-3.55271e-09,0
3.2,250.21,195,240.75,90,7.10543e-11,7.10543e-09,0
3.22,252.01,195,242.55,90,-7.10543e-11,-7.10543e-09,0
3.24,253.808,195,244.348,89.9,-5,-250,0
3.26,255.594,195,246.134,89.3,-30,-1250,0
3.28,257.352,195,247.892,87.9,-70,-2000,0
3.3,259.075,195,249.615,86.15,-87.5,-875,0
3.32,260.762,195,251.302,84.35,-90,-125,0
3.34,262.413,195,252.953,82.55,-90,0,0
3.36,264.028,195,254.568,80.75,-90,0,0
3.38,265.607,195,256.147,78.95,-90,0,0
3.4,267.15,195,257.69,77.15,-90,-7.10543e-09,0
3.42,268.657,195,259.197,75.35,-90,1.42109e-08,0
3.44,270.128,195,260.668,73.55,-90,-7.10543e-09,0
3.46,271.563,195,262.103,71.75,-90,3.55271e-11,0
3.48,272.962,195,263.502,69.95,-90,-3.55271e-11,0
3.5,274.325,195,264.865,68.15,-90,0,0
3.52,275.652,195,266.192,66.35,-90,0,0
3.54,276.943,195,267.483,64.55,-90,0,0
3.56,278.198,195,268.738,62.75,-90,0,0
3.58,279.417,195,269.957,60.95,-90,0,0
3.6,280.6,195,271.14,59.15,-90,7.12319e-09,0
3.62,281.747,195,272.287,57.35,-90,-1.42286e-08,0
3.64,282.858,195,273.398,55.55,-90,7.10543e-09,0
3.66,283.933,195,274.473,53.75,-90,0,0
3.68,284.972,195,275.512,51.95,-90,1.77636e-11,0
3.7,285.975,195,276.515,50.15,-90,7.08766e-09,0
3.72,286.942,195,277.482,48.35,-90,-1.42109e-08,0
3.74,287.873,195,278.413,46.55,-90,7.10543e-09,0
3.76,288.768,195,279.308,44.75,-90,2.38671e-09,0
3.78,289.627,195,280.167,42.95,-90,2.24958e-09,0
3.8,290.45,195,280.99,41.15,-90,-1.17417e-08,0
3.82,291.237,195,281.777,39.35,-90,1.42109e-08,0
3.84,291.988,195,282.528,37.55,-90,-1.42109e-08,0
3.86,292.703,195,283.243,35.75,-90,7.12319e-09,0
3.88,293.382,195,283.922,33.95,-90,7.08766e-09,0
3.9,294.025,195,284.565,32.15,-90,-1.42109e-08,0
3.92,294.632,195,285.172,30.35,-90,1.42109e-08,0
3.94,295.203,195,285.743,28.55,-90,-1.42023e-08,0
3.96,295.738,195,286.278,26.75,-90,1.42023e-08,0
3.98,296.237,195,286.777,24.95,-90,-7.0969e-09,0
4,296.7,195,287.24,23.15,-90,-7.11395e-09,0
4.02,297.127,195,287.667,21.35,-90,1.53008e-08,0
4.04,297.518,195,288.058,19.55,-90,-1.74659e-08,0
4.06,297.873,195,288.413,17.75,-90,1.8354e-08,0
4.08,298.192,195,288.732,15.95,-90,-1.08535e-08,0
4.1,298.475,195,289.015,14.15,-90,3.34381e-09,0
4.12,298.722,195,289.262,12.35,-90,-1.00492e-08,0
4.14,298.933,195,289.473,10.55,-90,1.67596e-08,0
4.16,299.108,195,289.648,8.75,-90,-9.25482e-09,0
4.18,299.247,195,289.787,6.95,-90,1.74722e-09,0
4.2,299.35,195,289.89,5.15,-90,-1.34506e-09,0
4.22,299.417,195,289.957,3.35,-90,-6.16112e-09,0
4.24,299.45,195,289.99,1.65,-85,250,0
4.26,299.459,195,289.999,0.45,-60,1250,0
4.28,299.46,195,290,0.05,-20,2000,0
