"time","x","y","position","velocity","acceleration","jerk","heading"
0,13.0192,194,0,0,0,0,0
0.02,13.0216,194,0.0024,0.12,6,300,0
0.04,13.0384,194,0.0192,0.84,36,1500,0
0.06,13.084,194,0.0648,2.28,72,1800,0
0.08,13.1721,194,0.1529,4.405,106.25,1712.5,0
0.1,13.3081,194,0.2889,6.8,119.75,675,0
0.12,13.4921,194,0.4729,9.2,120,12.5,0
0.14,13.7241,194,0.7049,11.6,120,-5.08038e-10,0
0.16,14.0041,194,0.9849,14,120,3.1477e-10,0
0.18,14.3321,194,1.3129,16.4,120,1.77636e-10,0
0.2,14.7081,194,1.6889,18.8,120,-5.14433e-10,0
0.22,15.1321,194,2.1129,21.2,120,3.63798e-10,0
0.24,15.6041,194,2.5849,23.6,120,1.50635e-10,0
0.26,16.1241,194,3.1049,26,120,-7.53886e-10,0
0.28,16.6921,194,3.6729,28.4,120,9.58522e-10,0
0.3,17.3081,194,4.2889,30.8,120,-4.36273e-10,0
0.32,17.9721,194,4.9529,33.2,120,9.9476e-12,0
0.34,18.6841,194,5.6649,35.6,120,-2.30216e-10,0
0.36,19.4441,194,6.4249,38,120,2.65032e-10,0
0.38,20.2521,194,7.2329,40.4,120,-8.73968e-11,0
0.4,21.1081,194,8.0889,42.8,120,2.65743e-10,0
0.42,22.0121,194,8.9929,45.2,120,-1.25056e-10,0
0.44,22.9641,194,9.9449,47.6,120,-6.38067e-10,0
0.46,23.9641,194,10.9449,50,120,7.63123e-10,0
0.48,25.0121,194,11.9929,52.4,120,3.72324e-10,0
0.5,26.1081,194,13.0889,54.8,120,-1.18874e-09,0
0.52,27.2521,194,14.2329,57.2,120,3.73035e-10,0
0.54,28.4441,194,15.4249,59.6,120,4.43379e-10,0
0.56,29.6841,194,16.6649,62,120,-1.77636e-11,0
0.58,30.9721,194,17.9529,64.4,120,5.13012e-10,0
0.6,32.3081,194,19.2889,66.8,120,-1.41824e-09,0
0.62,33.6921,194,20.6729,69.2,120,4.9738e-10,0
0.64,35.1241,194,22.1049,71.6,120,-4.61853e-10,0
0.66,36.6041,194,23.5849,74,120,1.74012e-09,0
0.68,38.1321,194,25.1129,76.4,120,-1.74012e-09,0
0.7,39.7081,194,26.6889,78.8,120,2.0222e-09,0
0.72,41.3321,194,28.3129,81.2,120,-3.12355e-09,0
0.74,43.0041,194,29.9849,83.6,120,2.87699e-09,0
0.76,44.7241,194,31.7049,86,120,-1.77565e-09,0
0.78,46.4921,194,33.4729,88.4,120,8.51941e-10,0
0.8,48.3081,194,35.2889,90.8,120,3.55271e-11,0
0.82,50.1721,194,37.1529,93.2,120,4.59721e-10,0
0.84,52.0841,194,39.0649,95.6,120,-1.77351e-09,0
0.86,54.0441,194,41.0249,98,120,1.31379e-09,0
0.88,56.0521,194,43.0329,100.4,120,0,0
0.9,58.1081,194,45.0889,102.8,120,-8.87468e-10,0
0.92,60.2121,194,47.1929,105.2,120,8.51941e-10,0
0.94,62.3641,194,49.3449,107.6,120,1.56106e-09,0
0.96,64.5641,194,51.5449,110,120,-3.90514e-09,0
0.98,66.8121,194,53.7929,112.4,120,3.26779e-09,0
1,69.1081,194,56.0889,114.8,120,-2.66382e-09,0
1.02,71.4497,194,58.4305,117.08,114,-300,0
1.04,73.8249,194,60.8057,118.76,84,-1500,0
1.06,76.2193,194,63.2001,119.72,48,-1800,0
1.08,78.6192,194,65.6,119.995,13.75,-1712.5,0
1.1,81.0192,194,68,120,0.25,-675,0
1.12,83.4192,194,70.4,120,3.48166e-11,-12.5,0
1.14,85.8192,194,72.8,120,3.12639e-11,-1.77636e-10,0
1.16,88.2192,194,75.2,120,-3.12639e-11,-3.12639e-09,0
1.18,90.6192,194,77.6,120,0,1.56319e-09,0
1.2,93.0192,194,80,120,-3.48166e-11,-1.74083e-09,0
1.22,95.4192,194,82.4,120,3.48166e-11,3.48166e-09,0
1.24,97.8192,194,84.8,120,-3.48166e-11,-3.48166e-09,0
1.26,100.219,194,87.1998,119.99,-0.5,-25,0
1.28,102.619,194,89.5998,120,0.5,50,0
1.3,105.019,194,91.9998,120,0,-25,0
1.32,107.419,194,94.3998,120,-3.48166e-11,-1.74083e-09,0
1.34,109.819,194,96.7998,120,3.48166e-11,3.48166e-09,0
1.36,112.219,194,99.1998,120,-3.48166e-11,-3.48166e-09,0
1.38,114.619,194,101.6,120,1.01608e-10,6.82121e-09,0
1.4,117.019,194,104,120,-6.6791e-11,-8.41993e-09,0
1.42,119.419,194,106.4,120,-3.48166e-11,1.59872e-09,0
1.44,121.819,194,108.8,120,3.48166e-11,3.48166e-09,0
1.46,124.219,194,111.2,120,-3.48166e-11,-3.48166e-09,0
1.48,126.619,194,113.6,120,3.48166e-11,3.48166e-09,0
1.5,129.019,194,116,120,0,-1.74083e-09,0
1.52,131.419,194,118.4,120,0,0,0
1.54,133.819,194,120.8,120,-7.03437e-11,-3.51719e-09,0
1.56,136.219,194,123.2,120,7.03437e-11,7.03437e-09,0
1.58,138.619,194,125.6,120,0,-3.51719e-09,0
1.6,141.019,194,128,120,0,0,0
1.62,143.419,194,130.4,120,0,0,0
1.64,145.819,194,132.8,120,-4.26326e-12,-2.13163e-10,0
1.66,148.219,194,135.2,120,4.26326e-12,4.26326e-10,0
1.68,150.619,194,137.6,120,0,-2.13163e-10,0
1.7,153.019,194,140,120,0,0,0
1.72,155.419,194,142.4,120,0,0,0
1.74,157.819,194,144.8,120,-7.03437e-11,-3.51719e-09,0
1.76,160.219,194,147.2,120,7.03437e-11,7.03437e-09,0
1.78,162.619,194,149.6,120,0,-3.51719e-09,0
1.8,165.019,194,152,120,0,0,0
1.82,167.419,194,154.4,120,0,0,0
1.84,169.819,194,156.8,120,-7.03437e-11,-3.51719e-09,0
1.86,172.219,194,159.2,120,7.03437e-11,7.03437e-09,0
1.88,174.619,194,161.6,120,6.6791e-11,-1.77636e-10,0
1.9,177.019,194,164,120,-6.6791e-11,-6.6791e-09,0
1.92,179.419,194,166.4,120,0,3.33955e-09,0
1.94,181.819,194,168.8,120,-7.03437e-11,-3.51719e-09,0
1.96,184.219,194,171.2,120,7.03437e-11,7.03437e-09,0
1.98,186.619,194,173.6,120,0,-3.51719e-09,0
2,189.019,194,176,120,0,0,0
2.02,191.419,194,178.4,120,0,0,0
2.04,193.819,194,180.8,120,-7.03437e-11,-3.51719e-09,0
2.06,196.219,194,183.2,120,7.03437e-11,7.03437e-09,0
2.08,198.619,194,185.6,120,0,-3.51719e-09,0
2.1,201.019,194,188,120,0,0,0
2.12,203.419,194,190.4,120,0,0,0
2.14,205.819,194,192.8,120,-7.03437e-11,-3.51719e-09,0
2.16,208.219,194,195.2,120,7.03437e-11,7.03437e-09,0
2.18,210.619,194,197.6,120,0,-3.51719e-09,0
2.2,213.019,194,200,120,0,0,0
2.22,215.419,194,202.4,120,0,0,0
2.24,217.819,194,204.8,120,-7.03437e-11,-3.51719e-09,0
2.26,220.219,194,207.2,120,2.03926e-10,1.37135e-08,0
2.28,222.619,194,209.6,120,-1.33582e-10,-1.68754e-08,0
2.3,225.019,194,212,120,0,6.6791e-09,0
2.32,227.419,194,214.4,120,0,0,0
2.34,229.819,194,216.8,120,-7.03437e-11,-3.51719e-09,0
2.36,232.219,194,219.2,120,7.03437e-11,7.03437e-09,0
2.38,234.619,194,221.6,120,0,-3.51719e-09,0
2.4,237.019,194,224,120,0,0,0
2.42,239.419,194,226.4,120,0,0,0
2.44,241.819,194,228.8,120,-7.03437e-11,-3.51719e-09,0
2.46,244.219,194,231.2,120,7.03437e-11,7.03437e-09,0
2.48,246.611,194,233.592,119.6,-20,-1000,0
2.5,248.982,194,235.963,118.55,-52.5,-1625,0
2.52,251.316,194,238.297,116.7,-92.5,-2000,0
2.54,253.604,194,240.585,114.4,-115,-1125,0
2.56,255.844,194,242.825,112,-120,-250,0
2.58,258.036,194,245.017,109.6,-120,7.10472e-09,0
2.6,260.18,194,247.161,107.2,-120,-3.552e-09,0
2.62,262.276,194,249.257,104.8,-120,0,0
2.64,264.324,194,251.305,102.4,-120,3.55271e-11,0
2.66,266.324,194,253.305,100,-120,-3.55271e-11,0
2.68,268.276,194,255.257,97.6,-120,0,0
2.7,270.18,194,257.161,95.2,-120,0,0
2.72,272.036,194,259.017,92.8,-120,0,0
2.74,273.844,194,260.825,90.4,-120,0,0
2.76,275.604,194,262.585,88,-120,4.76916e-09,0
2.78,277.316,194,264.297,85.6,-120,-9.63638e-09,0
2.8,278.98,194,265.961,83.2,-120,1.19719e-08,0
2.82,280.596,194,267.577,80.8,-120,-1.42101e-08,0
2.84,282.164,194,269.145,78.4,-120,7.10543e-09,0
2.86,283.684,194,270.665,76,-120,7.10472e-09,0
2.88,285.156,194,272.137,73.6,-120,-1.42101e-08,0
2.9,286.58,194,273.561,71.2,-120,7.14095e-09,0
2.92,287.956,194,274.937,68.8,-120,7.06919e-09,0
2.94,289.284,194,276.265,66.4,-120,-1.42101e-08,0
2.96,290.564,194,277.545,64,-120,1.42101e-08,0
2.98,291.796,194,278.777,61.6,-120,-1.42101e-08,0
3,292.98,194,279.961,59.2,-120,1.42279e-08,0
3.02,294.116,194,281.097,56.8,-120,-1.42279e-08,0
3.04,295.204,194,282.185,54.4,-120,1.42101e-08,0
3.06,296.244,194,283.225,52,-120,-7.10472e-09,0
3.08,297.236,194,284.217,49.6,-120,-7.08766e-09,0
3.1,298.18,194,285.161,47.2,-120,1.41924e-08,0
3.12,299.076,194,286.057,44.8,-120,-7.10472e-09,0
3.14,299.924,194,286.905,42.4,-120,-7.08766e-09,0
3.16,300.724,194,287.705,40,-120,1.41924e-08,0
3.18,301.476,194,288.457,37.6,-120,-7.10472e-09,0
3.2,302.18,194,289.161,35.2,-120,1.77636e-11,0
3.22,302.836,194,289.817,32.8,-120,-1.77636e-11,0
3.24,303.444,194,290.425,30.4,-120,0,0
3.26,304.004,194,290.985,28,-120,1.42961e-09,0
3.28,304.516,194,291.497,25.6,-120,-2.97504e-09,0
3.3,304.98,194,291.961,23.2,-120,1.54543e-09,0
3.32,305.396,194,292.377,20.8,-120,8.52651e-12,0
3.34,305.764,194,292.745,18.4,-120,-8.52651e-12,0
3.36,306.084,194,293.065,16,-120,8.52651e-12,0
3.38,306.356,194,293.337,13.6,-120,-4.26326e-12,0
3.4,306.58,194,293.561,11.2,-120,0,0
3.42,306.756,194,293.737,8.8,-120,4.26326e-12,0
3.44,306.884,194,293.865,6.4,-120,7.10116e-09,0
3.46,306.965,194,293.946,4.05,-117.5,125,0
3.48,307.004,194,293.985,1.95,-105,625,0
3.5,307.018,194,293.999,0.7,-62.5,2125,0
3.52,307.019,194,294,0.05,-32.5,1500,0
