"time","x","y","position","velocity","acceleration","jerk","heading"
0,9.45969,180,0,0,90,0,0
0.02,9.59386,180,0.134164,1.8,90,0,0
0.04,9.72802,180,0.268328,3.6,90,0,0
0.06,9.86219,180,0.402492,5.4,90,0,0
0.08,9.99635,180,0.536656,7.2,90,0,0
0.1,10.1305,180,0.67082,9,90,0,0
0.12,10.2647,180,0.804984,10.8,90,0,0
0.14,10.3988,180,0.939149,12.6,90,0,0
0.16,10.6367,180,1.17699,14.4,90,0,0
0.18,10.9606,180,1.50089,16.2,90,0,0
0.2,11.2845,180,1.82479,18,90,0,0
0.22,11.6535,180,2.19378,19.8,90,0,0
0.24,12.0756,180,2.6159,21.6,90,0,0
0.26,12.5048,180,3.04509,23.4,90,0,0
0.28,13.0055,180,3.5458,25.2,90,0,0
0.3,13.5125,180,4.05279,27,90,0,0
0.32,14.0808,180,4.62111,28.8,90,0,0
0.34,14.6692,180,5.20954,30.6,90,0,0
0.36,15.2979,180,5.83818,32.4,90,0,0
0.38,15.9673,180,6.50763,34.2,90,0,0
0.4,16.6651,180,7.20545,36,90,0,0
0.42,17.3996,180,7.93989,37.8,90,0,0
0.44,18.1777,180,8.71796,39.6,90,0,0
0.46,18.9883,180,9.52856,41.4,90,0,0
0.48,19.8333,180,10.3736,43.2,90,0,0
0.5,20.7138,180,11.2541,45,90,0,0
0.52,21.6305,180,12.1708,46.8,90,0,0
0.54,22.5837,180,13.124,48.6,90,0,0
0.56,23.5734,180,14.1137,50.4,90,0,0
0.58,24.5996,180,15.1399,52.2,90,0,0
0.6,25.6621,180,16.2024,54,90,0,0
0.62,26.7607,180,17.301,55.8,90,0,0
0.64,27.895,180,18.4353,57.6,90,0,0
0.66,29.0648,180,19.6051,59.4,90,0,0
0.68,30.2696,180,20.8099,61.2,90,0,0
0.7,31.5102,180,22.0505,63,90,0,0
0.72,32.79,180,23.3304,64.8,90,0,0
0.74,34.104,180,24.6443,66.6,90,0,0
0.76,35.4518,180,25.9921,68.4,90,0,0
0.78,36.8398,180,27.3801,70.2,90,0,0
0.8,38.2611,180,28.8014,72,90,0,0
0.82,39.7193,180,30.2596,73.8,90,0,0
0.84,41.2132,180,31.7535,75.6,90,0,0
0.86,42.7432,180,33.2835,77.4,90,0,0
0.88,44.3086,180,34.8489,79.2,90,0,0
0.9,45.9114,180,36.4517,81,90,0,0
0.92,47.5482,180,38.0885,82.8,90,0,0
0.94,49.2228,180,39.7631,84.6,90,0,0
0.96,50.9332,180,41.4735,86.4,90,0,0
0.98,52.6787,180,43.219,88.2,90,0,0
1,54.4597,180,45,90,0,0,0
1.02,56.2597,180,46.8,90,0,0,0
1.04,58.0597,180,48.6,90,0,0,0
1.06,59.8597,180,50.4,90,0,0,0
1.08,61.6597,180,52.2,90,0,0,0
1.1,63.4597,180,54,90,0,0,0
1.12,65.2597,180,55.8,90,0,0,0
1.14,67.0597,180,57.6,90,0,0,0
1.16,68.8597,180,59.4,90,0,0,0
1.18,70.6597,180,61.2,90,0,0,0
1.2,72.4597,180,63,90,0,0,0
1.22,74.2597,180,64.8,90,0,0,0
1.24,76.0597,180,66.6,90,0,0,0
1.26,77.8597,180,68.4,90,0,0,0
1.28,79.6597,180,70.2,90,0,0,0
1.3,81.4597,180,72,90,0,0,0
1.32,83.2597,180,73.8,90,0,0,0
1.34,85.0597,180,75.6,90,0,0,0
1.36,86.8597,180,77.4,90,0,0,0
1.38,88.6597,180,79.2,90,0,0,0
1.4,90.4597,180,81,90,0,0,0
1.42,92.2597,180,82.8,90,0,0,0
1.44,94.0597,180,84.6,90,0,0,0
1.46,95.8597,180,86.4,90,0,0,0
1.48,97.6597,180,88.2,90,0,0,0
1.5,99.4597,180,90,90,0,0,0
1.52,101.26,180,91.8,90,0,0,0
1.54,103.06,180,93.6,90,0,0,0
1.56,104.86,180,95.4,90,0,0,0
1.58,106.66,180,97.2,90,0,0,0
1.6,108.46,180,99,90,0,0,0
1.62,110.26,180,100.8,90,0,0,0
1.64,112.06,180,102.6,90,0,0,0
1.66,113.86,180,104.4,90,0,0,0
1.68,115.66,180,106.2,90,0,0,0
1.7,117.46,180,108,90,0,0,0
1.72,119.26,180,109.8,90,0,0,0
1.74,121.06,180,111.6,90,0,0,0
1.76,122.86,180,113.4,90,0,0,0
1.78,124.66,180,115.2,90,0,0,0
1.8,126.46,180,117,90,0,0,0
1.82,128.26,180,118.8,90,0,0,0
1.84,130.06,180,120.6,90,0,0,0
1.86,131.86,180,122.4,90,0,0,0
1.88,133.66,180,124.2,90,0,0,0
1.9,135.46,180,126,90,0,0,0
1.92,137.26,180,127.8,90,0,0,0
1.94,139.06,180,129.6,90,0,0,0
1.96,140.86,180,131.4,90,0,0,0
1.98,142.66,180,133.2,90,0,0,0
2,144.46,180,135,90,0,0,0
2.02,146.26,180,136.8,90,0,0,0
2.04,148.06,180,138.6,90,0,0,0
2.06,149.86,180,140.4,90,0,0,0
2.08,151.66,180,142.2,90,0,0,0
2.1,153.46,180,144,90,0,0,0
2.12,155.26,180,145.8,90,0,0,0
2.14,157.06,180,147.6,90,0,0,0
2.16,158.86,180,149.4,90,0,0,0
2.18,160.66,180,151.2,90,0,0,0
2.2,162.46,180,153,90,0,0,0
2.22,164.26,180,154.8,90,0,0,0
2.24,166.06,180,156.6,90,0,0,0
2.26,167.86,180,158.4,90,0,0,0
2.28,169.66,180,160.2,90,0,0,0
2.3,171.46,180,162,90,0,0,0
2.32,173.26,180,163.8,90,0,0,0
2.34,175.06,180,165.6,90,0,0,0
2.36,176.86,180,167.4,90,0,0,0
2.38,178.66,180,169.2,90,0,0,0
2.4,180.46,180,171,90,0,0,0
2.42,182.26,180,172.8,90,0,0,0
2.44,184.06,180,174.6,90,0,0,0
2.46,185.86,180,176.4,90,0,0,0
2.48,187.66,180,178.2,90,0,0,0
2.5,189.46,180,180,90,0,0,0
2.52,191.26,180,181.8,90,0,0,0
2.54,193.06,180,183.6,90,0,0,0
2.56,194.86,180,185.4,90,0,0,0
2.58,196.66,180,187.2,90,0,0,0
2.6,198.46,180,189,90,0,0,0
2.62,200.26,180,190.8,90,0,0,0
2.64,202.06,180,192.6,90,0,0,0
2.66,203.86,180,194.4,90,0,0,0
2.68,205.66,180,196.2,90,0,0,0
2.7,207.46,180,198,90,0,0,0
2.72,209.26,180,199.8,90,0,0,0
2.74,211.06,180,201.6,90,0,0,0
2.76,212.86,180,203.4,90,0,0,0
2.78,214.66,180,205.2,90,0,0,0
2.8,216.46,180,207,90,0,0,0
2.82,218.26,180,208.8,90,0,0,0
2.84,220.06,180,210.6,90,0,0,0
2.86,221.86,180,212.4,90,0,0,0
2.88,223.66,180,214.2,90,0,0,0
2.9,225.46,180,216,90,0,0,0
2.92,227.26,180,217.8,90,0,0,0
2.94,229.06,180,219.6,90,0,0,0
2.96,230.86,180,221.4,90,0,0,0
2.98,232.659,180,223.199,89.8,-90,0,0
3,234.437,180,224.978,88,-90,0,0
3.02,236.178,180,226.719,86.2,-90,0,0
3.04,237.884,180,228.424,84.4,-90,0,0
3.06,239.555,180,230.095,82.6,-90,0,0
3.08,241.188,180,231.728,80.8,-90,0,0
3.1,242.786,180,233.326,79,-90,0,0
3.12,244.349,180,234.889,77.2,-90,0,0
3.14,245.874,180,236.414,75.4,-90,0,0
3.16,247.365,180,237.905,73.6,-90,0,0
3.18,248.817,180,239.358,71.8,-90,0,0
3.2,250.236,180,240.776,70,-90,0,0
3.22,251.618,180,242.158,68.2,-90,0,0
3.24,252.963,180,243.503,66.4,-90,0,0
3.26,254.274,180,244.814,64.6,-90,0,0
3.28,255.549,180,246.089,62.8,-90,0,0
3.3,256.785,180,247.325,61,-90,0,0
3.32,257.986,180,248.527,59.2,-90,0,0
3.34,259.153,180,249.693,57.4,-90,0,0
3.36,260.283,180,250.824,55.6,-90,0,0
3.38,261.378,180,251.919,53.8,-90,0,0
3.4,262.437,180,252.977,52,-90,0,0
3.42,263.459,180,254,50.2,-90,0,0
3.44,264.445,180,254.986,48.4,-90,0,0
3.46,265.394,180,255.935,46.6,-90,0,0
3.48,266.307,180,256.847,44.8,-90,0,0
3.5,267.183,180,257.723,43,-90,0,0
3.52,268.023,180,258.563,41.2,-90,0,0
3.54,268.829,180,259.369,39.4,-90,0,0
3.56,269.601,180,260.142,37.6,-90,0,0
3.58,270.336,180,260.876,35.8,-90,0,0
3.6,271.028,180,261.568,34,-90,0,0
3.62,271.691,180,262.232,32.2,-90,0,0
3.64,272.32,180,262.86,30.4,-90,0,0
3.66,272.902,180,263.442,28.6,-90,0,0
3.68,273.469,180,264.009,26.8,-90,0,0
3.7,273.97,180,264.51,25,-90,0,0
3.72,274.469,180,265.009,23.2,-90,0,0
3.74,274.891,180,265.431,21.4,-90,0,0
3.76,275.313,180,265.853,19.6,-90,0,0
3.78,275.671,180,266.211,17.8,-90,0,0
3.8,275.995,180,266.535,16,-90,0,0
3.82,276.319,180,266.859,14.2,-90,0,0
3.84,276.535,180,267.076,12.4,-90,0,0
3.86,276.67,180,267.21,10.6,-90,0,0
3.88,276.804,180,267.344,8.8,-90,0,0
3.9,276.938,180,267.478,7,-90,0,0
3.92,277.072,180,267.612,5.2,-90,0,0
3.94,277.206,180,267.747,3.4,-90,0,0
3.96,277.34,180,267.881,1.6,-90,0,0
