"time","x","y","position","velocity","acceleration","jerk","heading"
0,9.45969,165,0,0,0,0,0
0.02,9.59386,165,0.13417,6.7085,335.425,16771.2,0
0.04,9.72802,165,0.26833,6.708,-0.025,-16772.5,0
0.06,9.86219,165,0.4025,6.7085,0.025,2.5,0
0.08,9.99635,165,0.53666,6.708,-0.025,-2.5,0
0.1,10.1305,165,0.67081,6.7075,-0.025,4.44089e-12,0
0.12,10.2647,165,0.80501,6.71,0.125,7.5,0
0.14,10.3988,165,0.93911,6.705,-0.25,-18.75,0
0.16,10.6367,165,1.17701,11.895,259.5,12987.5,0
0.18,10.9606,165,1.50091,16.195,215,-2225,0
0.2,11.2845,165,1.82481,16.195,-1.06581e-12,-10750,0
0.22,11.6535,165,2.19381,18.45,112.75,5637.5,0
0.24,12.0756,165,2.61591,21.105,132.75,1000,0
0.26,12.5048,165,3.04511,21.46,17.75,-5750,0
0.28,13.0055,165,3.54581,25.035,178.75,8050,0
0.3,13.5125,165,4.05281,25.35,15.75,-8150,0
0.32,14.0808,165,4.62111,28.415,153.25,6875,0
0.34,14.6692,165,5.20951,29.42,50.25,-5150,0
0.36,15.2979,165,5.83821,31.435,100.75,2525,0
0.38,15.9673,165,6.50761,33.47,101.75,50,0
0.4,16.6651,165,7.20541,34.89,71,-1537.5,0
0.42,17.3996,165,7.93991,36.725,91.75,1037.5,0
0.44,18.1777,165,8.71801,38.905,109,862.5,0
0.46,18.9883,165,9.52861,40.53,81.25,-1387.5,0
0.48,19.8333,165,10.3736,42.25,86,237.5,0
0.5,20.7138,165,11.2541,44.025,88.75,137.5,0
0.52,21.6305,165,12.1708,45.835,90.5,87.5,0
0.54,22.5837,165,13.124,47.66,91.25,37.5,0
0.56,23.5734,165,14.1137,49.485,91.25,4.44089e-10,0
0.58,24.5996,165,15.1399,51.31,91.25,7.36122e-10,0
0.6,25.6621,165,16.2024,53.125,90.75,-25,0
0.62,26.7607,165,17.301,54.93,90.25,-25,0
0.64,27.895,165,18.4353,56.715,89.25,-50,0
0.66,29.0648,165,19.6051,58.49,88.75,-25,0
0.68,30.2696,165,20.8099,60.24,87.5,-62.5,0
0.7,31.5102,165,22.0505,62.03,89.5,100,0
0.72,32.79,165,23.3303,63.99,98,425,0
0.74,34.104,165,24.6443,65.7,85.5,-625,0
0.76,35.4518,165,25.9921,67.39,84.5,-50,0
0.78,36.8398,165,27.3801,69.4,100.5,800,0
0.8,38.2611,165,28.8014,71.065,83.25,-862.5,0
0.82,39.7193,165,30.2596,72.91,92.25,450,0
0.84,41.2132,165,31.7535,74.695,89.25,-150,0
0.86,42.7432,165,33.2835,76.5,90.25,50,0
0.88,44.3086,165,34.8489,78.27,88.5,-87.5,0
0.9,45.9114,165,36.4517,80.14,93.5,250,0
0.92,47.5482,165,38.0885,81.84,85,-425,0
0.94,49.2228,165,39.7631,83.73,94.5,475,0
0.96,50.9332,165,41.4735,85.52,89.5,-250,0
0.98,52.6787,165,43.219,87.275,87.75,-87.5,0
1,54.4597,165,45,89.05,88.75,50,0
1.02,56.2597,165,46.8,90,47.5,-2062.5,0
1.04,58.0597,165,48.6,90,-1.77636e-11,-2375,0
1.06,59.8597,165,50.4,90,0,8.88178e-10,0
1.08,61.6597,165,52.2,90,1.77636e-11,8.88178e-10,0
1.1,63.4597,165,54,90,-1.77636e-11,-1.77636e-09,0
1.12,65.2597,165,55.8,90,0,8.88178e-10,0
1.14,67.0597,165,57.6,90,8.59757e-11,4.29878e-09,0
1.16,68.8597,165,59.4,90,-8.59757e-11,-8.59757e-09,0
1.18,70.6597,165,61.2,90,0,4.29878e-09,0
1.2,72.4597,165,63,90,0,0,0
1.22,74.2597,165,64.8,90,0,0,0
1.24,76.0597,165,66.6,90,3.55271e-11,1.77636e-09,0
1.26,77.8597,165,68.4,90,-3.55271e-11,-3.55271e-09,0
1.28,79.6597,165,70.2,90,0,1.77636e-09,0
1.3,81.4597,165,72,90,0,0,0
1.32,83.2597,165,73.8,90,0,0,0
1.34,85.0597,165,75.6,90,3.55271e-11,1.77636e-09,0
1.36,86.8597,165,77.4,90,-3.55271e-11,-3.55271e-09,0
1.38,88.6597,165,79.2,90,5.04485e-11,4.29878e-09,0
1.4,90.4597,165,81,90,-5.04485e-11,-5.04485e-09,0
1.42,92.2597,165,82.8,90,0,2.52243e-09,0
1.44,94.0597,165,84.6,90,3.55271e-11,1.77636e-09,0
1.46,95.8597,165,86.4,90,-3.55271e-11,-3.55271e-09,0
1.48,97.6597,165,88.2,90,0,1.77636e-09,0
1.5,99.4597,165,90,90,0,0,0
1.52,101.26,165,91.8003,90.015,0.75,37.5,0
1.54,103.06,165,93.6003,90,-0.75,-75,0
1.56,104.86,165,95.4003,90,0,37.5,0
1.58,106.66,165,97.2003,90,0,0,0
1.6,108.46,165,99.0003,90,0,0,0
1.62,110.26,165,100.8,90,3.55271e-11,1.77636e-09,0
1.64,112.06,165,102.6,90,1.49214e-11,-1.03029e-09,0
1.66,113.86,165,104.4,90,-5.04485e-11,-3.2685e-09,0
1.68,115.66,165,106.2,90,0,2.52243e-09,0
1.7,117.46,165,108,90,0,0,0
1.72,119.26,165,109.8,90,3.55271e-11,1.77636e-09,0
1.74,121.06,165,111.6,90,-3.55271e-11,-3.55271e-09,0
1.76,122.86,165,113.4,90,0,1.77636e-09,0
1.78,124.66,165,115.2,90,0,0,0
1.8,126.46,165,117,90,0,0,0
1.82,128.26,165,118.8,90,0,0,0
1.84,130.06,165,120.6,90,3.55271e-11,1.77636e-09,0
1.86,131.86,165,122.4,90,0,-1.77636e-09,0
1.88,133.66,165,124.2,90,-2.06057e-11,-1.03029e-09,0
1.9,135.46,165,126,90,2.06057e-11,2.06057e-09,0
1.92,137.26,165,127.8,90,-7.10543e-11,-4.583e-09,0
1.94,139.06,165,129.6,90,7.10543e-11,7.10543e-09,0
1.96,140.86,165,131.4,90,0,-3.55271e-09,0
1.98,142.66,165,133.2,90,-7.10543e-11,-3.55271e-09,0
2,144.46,165,135,90,7.10543e-11,7.10543e-09,0
2.02,146.26,165,136.8,90,-7.10543e-11,-7.10543e-09,0
2.04,148.06,165,138.6,90,7.10543e-11,7.10543e-09,0
2.06,149.86,165,140.4,90,0,-3.55271e-09,0
2.08,151.66,165,142.2,90,-7.10543e-11,-3.55271e-09,0
2.1,153.46,165,144,90,7.10543e-11,7.10543e-09,0
2.12,155.26,165,145.8,90,-7.10543e-11,-7.10543e-09,0
2.14,157.06,165,147.6,90,7.10543e-11,7.10543e-09,0
2.16,158.86,165,149.4,90,0,-3.55271e-09,0
2.18,160.66,165,151.2,90,-7.10543e-11,-3.55271e-09,0
2.2,162.46,165,153,90,7.10543e-11,7.10543e-09,0
2.22,164.26,165,154.8,90,-7.10543e-11,-7.10543e-09,0
2.24,166.06,165,156.6,90,7.10543e-11,7.10543e-09,0
2.26,167.86,165,158.4,90,1.00187e-10,1.45661e-09,0
2.28,169.66,165,160.2,90,-1.71241e-10,-1.35714e-08,0
2.3,171.46,165,162,90,7.10543e-11,1.21148e-08,0
2.32,173.26,165,163.8,90,-7.10543e-11,-7.10543e-09,0
2.34,175.06,165,165.6,90,7.10543e-11,7.10543e-09,0
2.36,176.86,165,167.4,90,0,-3.55271e-09,0
2.38,178.66,165,169.2,90,-7.10543e-11,-3.55271e-09,0
2.4,180.46,165,171,90,7.10543e-11,7.10543e-09,0
2.42,182.26,165,172.8,90,-7.10543e-11,-7.10543e-09,0
2.44,184.06,165,174.6,90,7.10543e-11,7.10543e-09,0
2.46,185.86,165,176.4,90,0,-3.55271e-09,0
2.48,187.66,165,178.2,90,-7.10543e-11,-3.55271e-09,0
2.5,189.46,165,180,90,7.10543e-11,7.10543e-09,0
2.52,191.26,165,181.8,90,-7.10543e-11,-7.10543e-09,0
2.54,193.06,165,183.6,90,7.10543e-11,7.10543e-09,0
2.56,194.856,165,185.396,89.8,-10,-500,0
2.58,196.629,165,187.169,88.65,-57.5,-2375,0
2.6,198.365,165,188.905,86.8,-92.5,-1750,0
2.62,200.064,165,190.604,84.95,-92.5,-7.14095e-09,0
2.64,201.728,165,192.268,83.2,-87.5,250,0
2.66,203.356,165,193.896,81.4,-90,-125,0
2.68,204.947,165,195.487,79.55,-92.5,-125,0
2.7,206.504,165,197.044,77.85,-85,375,0
2.72,208.022,165,198.562,75.9,-97.5,-625,0
2.74,209.507,165,200.047,74.25,-82.5,750,0
2.76,210.953,165,201.493,72.3,-97.5,-750,0
2.78,212.367,165,202.907,70.7,-80,875,0
2.8,213.741,165,204.281,68.7,-100,-1000,0
2.82,215.081,165,205.621,67,-85,750,0
2.84,216.386,165,206.926,65.25,-87.5,-125,0
2.86,217.653,165,208.193,63.35,-95,-375,0
2.88,218.883,165,209.423,61.5,-92.5,125,0
2.9,220.079,165,210.619,59.8,-85,375,0
2.92,221.24,165,211.78,58.05,-87.5,-125,0
2.94,222.364,165,212.904,56.2,-92.5,-250,0
2.96,223.453,165,213.993,54.45,-87.5,250,0
2.98,224.505,165,215.045,52.6,-92.5,-250,0
3,225.52,165,216.06,50.75,-92.5,3.57048e-09,0
3.02,226.5,165,217.04,49,-87.5,250,0
3.04,227.444,165,217.984,47.2,-90,-125,0
3.06,228.35,165,218.89,45.3,-95,-250,0
3.08,229.22,165,219.76,43.5,-90,250,0
3.1,230.054,165,220.594,41.7,-90,-1.77636e-11,0
3.12,230.864,165,221.404,40.5,-60,1500,0
3.14,231.664,165,222.204,40,-25,1750,0
3.16,232.464,165,223.004,40,7.10543e-11,1250,0
3.18,233.264,165,223.804,40,0,-3.55271e-09,0
3.2,234.064,165,224.604,40,-7.10543e-11,-3.55271e-09,0
3.22,234.864,165,225.404,40,7.10543e-11,7.10543e-09,0
3.24,235.664,165,226.204,40,-7.10543e-11,-7.10543e-09,0
3.26,236.464,165,227.004,40,1.15463e-10,9.32587e-09,0
3.28,237.264,165,227.804,40,-4.44089e-11,-7.99361e-09,0
3.3,238.064,165,228.604,40,-7.10543e-11,-1.33227e-09,0
3.32,238.864,165,229.404,40,7.10543e-11,7.10543e-09,0
3.34,239.664,165,230.204,40,-7.10543e-11,-7.10543e-09,0
3.36,240.464,165,231.004,40,7.10543e-11,7.10543e-09,0
3.38,241.264,165,231.804,40,0,-3.55271e-09,0
3.4,242.064,165,232.604,40,-7.10543e-11,-3.55271e-09,0
3.42,242.864,165,233.404,40,7.10543e-11,7.10543e-09,0
3.44,243.664,165,234.204,40,-7.10543e-11,-7.10543e-09,0
3.46,244.464,165,235.004,40,7.10543e-11,7.10543e-09,0
3.48,245.264,165,235.804,40,0,-3.55271e-09,0
3.5,246.064,165,236.604,40,-7.10543e-11,-3.55271e-09,0
3.52,246.864,165,237.404,40,7.10543e-11,7.10543e-09,0
3.54,247.664,165,238.204,40,-7.10543e-11,-7.10543e-09,0
3.56,248.464,165,239.004,40,7.10543e-11,7.10543e-09,0
3.58,249.264,165,239.804,40,0,-3.55271e-09,0
3.6,250.064,165,240.604,40,-7.10543e-11,-3.55271e-09,0
3.62,250.864,165,241.404,40,7.10543e-11,7.10543e-09,0
3.64,251.664,165,242.204,40,-7.10543e-11,-7.10543e-09,0
3.66,252.464,165,243.004,40,7.10543e-11,7.10543e-09,0
3.68,253.264,165,243.804,40,0,-3.55271e-09,0
3.7,254.064,165,244.604,40,-7.10543e-11,-3.55271e-09,0
3.72,254.864,165,245.404,40,7.10543e-11,7.10543e-09,0
3.74,255.664,165,246.204,40,-7.10543e-11,-7.10543e-09,0
3.76,256.464,165,247.004,40,1.15463e-10,9.32587e-09,0
3.78,257.264,165,247.804,40,-4.44089e-11,-7.99361e-09,0
3.8,258.064,165,248.604,40,0,2.22045e-09,0
3.82,258.864,165,249.404,40,-1.42109e-10,-7.10543e-09,0
3.84,259.664,165,250.204,40,1.42109e-10,1.42109e-08,0
3.86,260.464,165,251.004,40,0,-7.10543e-09,0
3.88,261.264,165,251.804,40,0,0,0
3.9,262.064,165,252.604,40,0,0,0
3.92,262.864,165,253.404,40,-1.42109e-10,-7.10543e-09,0
3.94,263.664,165,254.204,40,1.42109e-10,1.42109e-08,0
3.96,264.464,165,255.004,40,0,-7.10543e-09,0
3.98,265.264,165,255.804,40,0,0,0
4,266.064,165,256.604,40,0,0,0
4.02,266.864,165,257.404,40,-9.76996e-11,-4.88498e-09,0
4.04,267.664,165,258.204,40,5.32907e-11,7.54952e-09,0
4.06,268.464,165,259.004,40,8.88178e-11,1.77636e-09,0
4.08,269.244,165,259.784,39,-50,-2500,0
4.1,269.991,165,260.531,37.35,-82.5,-1625,0
4.12,270.707,165,261.247,35.8,-77.5,250,0
4.14,271.39,165,261.93,34.15,-82.5,-250,0
4.16,272.025,165,262.565,31.75,-120,-1875,0
4.18,272.635,165,263.175,30.5,-62.5,2875,0
4.2,273.203,165,263.743,28.4,-105,-2125,0
4.22,273.734,165,264.274,26.55,-92.5,625,0
4.24,274.235,165,264.775,25.05,-75,875,0
4.26,274.692,165,265.232,22.85,-110,-1750,0
4.28,275.114,165,265.654,21.1,-87.5,1125,0
4.3,275.519,165,266.059,20.25,-42.5,2250,0
4.32,275.843,165,266.383,16.2,-202.5,-8000,0
4.34,276.166,165,266.706,16.15,-2.5,10000,0
4.36,276.472,165,267.012,15.3,-42.5,-2000,0
4.38,276.607,165,267.147,6.75,-427.5,-19250,0
4.4,276.741,165,267.281,6.7,-2.5,21250,0
4.42,276.875,165,267.415,6.7,1.56986e-10,125,0
4.44,277.009,165,267.549,6.7,-1.4877e-11,-8.59313e-09,0
4.46,277.143,165,267.683,6.7,-1.27232e-10,-5.61773e-09,0
4.48,277.277,165,267.817,6.7,1.27232e-10,1.27232e-08,0
4.5,277.412,165,267.952,6.75,2.5,125,0
