"time","x","y","position","velocity","acceleration","jerk","heading"
0,13.0192,194,0,0,0,0,0
0.02,13.0216,194,0.0024,0.12,6,300,0
0.04,13.0384,194,0.0192,0.84,36,1500,0
0.06,13.0829,194,0.0637,2.225,69.25,1662.5,0
0.08,13.1593,194,0.1401,3.82,79.75,525,0
0.1,13.2678,194,0.2486,5.425,80.25,25,0
0.12,13.4082,194,0.389,7.02,79.75,-25,0
0.14,13.5807,194,0.5615,8.625,80.25,25,0
0.16,13.7851,194,0.7659,10.22,79.75,-25,0
0.18,14.0216,194,1.0024,11.825,80.25,25,0
0.2,14.29,194,1.2708,13.42,79.75,-25,0
0.22,14.5905,194,1.5713,15.025,80.25,25,0
0.24,14.9229,194,1.9037,16.62,79.75,-25,0
0.26,15.2873,194,2.2681,18.22,80,12.5,0
0.28,15.6838,194,2.6646,19.825,80.25,12.5,0
0.3,16.1122,194,3.093,21.42,79.75,-25,0
0.32,16.5727,194,3.5535,23.025,80.25,25,0
0.34,17.0651,194,4.0459,24.62,79.75,-25,0
0.36,17.5896,194,4.5704,26.225,80.25,25,0
0.38,18.146,194,5.1268,27.82,79.75,-25,0
0.4,18.7345,194,5.7153,29.425,80.25,25,0
0.42,19.3549,194,6.3357,31.02,79.75,-25,0
0.44,20.0073,194,6.9881,32.62,80,12.5,0
0.46,20.6918,194,7.6726,34.225,80.25,12.5,0
0.48,21.4082,194,8.389,35.82,79.75,-25,0
0.5,22.1567,194,9.1375,37.425,80.25,25,0
0.52,22.9371,194,9.9179,39.02,79.75,-25,0
0.54,23.7496,194,10.7304,40.625,80.25,25,0
0.56,24.594,194,11.5748,42.22,79.75,-25,0
0.58,25.4705,194,12.4513,43.825,80.25,25,0
0.6,26.3789,194,13.3597,45.42,79.75,-25,0
0.62,27.3193,194,14.3001,47.02,80,12.5,0
0.64,28.2918,194,15.2726,48.625,80.25,12.5,0
0.66,29.2962,194,16.277,50.22,79.75,-25,0
0.68,30.3327,194,17.3135,51.825,80.25,25,0
0.7,31.4011,194,18.3819,53.42,79.75,-25,0
0.72,32.5016,194,19.4824,55.025,80.25,25,0
0.74,33.634,194,20.6148,56.62,79.75,-25,0
0.76,34.7985,194,21.7793,58.225,80.25,25,0
0.78,35.9949,194,22.9757,59.82,79.75,-25,0
0.8,37.2233,194,24.2041,61.42,80,12.5,0
0.82,38.4838,194,25.4646,63.025,80.25,12.5,0
0.84,39.7762,194,26.757,64.62,79.75,-25,0
0.86,41.1007,194,28.0815,66.225,80.25,25,0
0.88,42.4571,194,29.4379,67.82,79.75,-25,0
0.9,43.8456,194,30.8264,69.425,80.25,25,0
0.92,45.266,194,32.2468,71.02,79.75,-25,0
0.94,46.7185,194,33.6993,72.625,80.25,25,0
0.96,48.2029,194,35.1837,74.22,79.75,-25,0
0.98,49.7193,194,36.7001,75.82,80,12.5,0
1,51.2678,194,38.2486,77.425,80.25,12.5,0
1.02,52.8482,194,39.829,79.02,79.75,-25,0
1.04,54.4607,194,41.4415,80.625,80.25,25,0
1.06,56.1051,194,43.0859,82.22,79.75,-25,0
1.08,57.7816,194,44.7624,83.825,80.25,25,0
1.1,59.49,194,46.4708,85.42,79.75,-25,0
1.12,61.2305,194,48.2113,87.025,80.25,25,0
1.14,63.0029,194,49.9837,88.62,79.75,-25,0
1.16,64.8073,194,51.7881,90.22,80,12.5,0
1.18,66.6438,194,53.6246,91.825,80.25,12.5,0
1.2,68.5122,194,55.493,93.42,79.75,-25,0
1.22,70.4127,194,57.3935,95.025,80.25,25,0
1.24,72.3451,194,59.3259,96.62,79.75,-25,0
1.26,74.3096,194,61.2904,98.225,80.25,25,0
1.28,76.306,194,63.2868,99.82,79.75,-25,0
1.3,78.3345,194,65.3153,101.425,80.25,25,0
1.32,80.3949,194,67.3757,103.02,79.75,-25,0
1.34,82.4873,194,69.4681,104.62,80,12.5,0
1.36,84.6118,194,71.5926,106.225,80.25,12.5,0
1.38,86.7682,194,73.749,107.82,79.75,-25,0
1.4,88.9567,194,75.9375,109.425,80.25,25,0
1.42,91.1771,194,78.1579,111.02,79.75,-25,0
1.44,93.4296,194,80.4104,112.625,80.25,25,0
1.46,95.714,194,82.6948,114.22,79.75,-25,0
1.48,98.0305,194,85.0113,115.825,80.25,25,0
1.5,100.379,194,87.3598,117.425,80,-12.5,0
1.52,102.757,194,89.7378,118.9,73.75,-312.5,0
1.54,105.153,194,92.1338,119.8,45,-1437.5,0
1.56,107.553,194,94.5338,120,10,-1750,0
1.58,109.953,194,96.9338,120,3.48166e-11,-500,0
1.6,112.353,194,99.3338,120,-3.48166e-11,-3.48166e-09,0
1.62,114.753,194,101.734,120,3.48166e-11,3.48166e-09,0
1.64,117.153,194,104.134,120,6.6791e-11,1.59872e-09,0
1.66,119.553,194,106.534,120,-1.01608e-10,-8.41993e-09,0
1.68,121.953,194,108.934,120,3.48166e-11,6.82121e-09,0
1.7,124.353,194,111.334,120,-3.48166e-11,-3.48166e-09,0
1.72,126.753,194,113.734,120,3.48166e-11,3.48166e-09,0
1.74,129.153,194,116.134,120,-3.48166e-11,-3.48166e-09,0
1.76,131.553,194,118.534,120,3.48166e-11,3.48166e-09,0
1.78,133.953,194,120.934,120,0,-1.74083e-09,0
1.8,136.353,194,123.334,120,0,0,0
1.82,138.753,194,125.734,120,-7.03437e-11,-3.51719e-09,0
1.84,141.153,194,128.134,120,7.03437e-11,7.03437e-09,0
1.86,143.553,194,130.534,120,0,-3.51719e-09,0
1.88,145.953,194,132.934,120,6.6791e-11,3.33955e-09,0
1.9,148.353,194,135.334,120,-6.6791e-11,-6.6791e-09,0
1.92,150.753,194,137.734,120,-7.03437e-11,-1.77636e-10,0
1.94,153.153,194,140.134,120,7.03437e-11,7.03437e-09,0
1.96,155.553,194,142.534,120,0,-3.51719e-09,0
1.98,157.953,194,144.934,120,0,0,0
2,160.353,194,147.334,120,0,0,0
2.02,162.753,194,149.734,120,-7.03437e-11,-3.51719e-09,0
2.04,165.153,194,152.134,120,7.03437e-11,7.03437e-09,0
2.06,167.553,194,154.534,120,0,-3.51719e-09,0
2.08,169.953,194,156.934,120,0,0,0
2.1,172.353,194,159.334,120,0,0,0
2.12,174.753,194,161.734,120,-7.03437e-11,-3.51719e-09,0
2.14,177.153,194,164.134,120,7.03437e-11,7.03437e-09,0
2.16,179.553,194,166.534,120,0,-3.51719e-09,0
2.18,181.953,194,168.934,120,0,0,0
2.2,184.353,194,171.334,120,0,0,0
2.22,186.753,194,173.734,120,-7.03437e-11,-3.51719e-09,0
2.24,189.153,194,176.134,120,7.03437e-11,7.03437e-09,0
2.26,191.553,194,178.534,120,1.33582e-10,3.16192e-09,0
2.28,193.953,194,180.934,120,-1.33582e-10,-1.33582e-08,0
2.3,196.353,194,183.334,120,0,6.6791e-09,0
2.32,198.753,194,185.734,120,-7.03437e-11,-3.51719e-09,0
2.34,201.153,194,188.134,120,7.03437e-11,7.03437e-09,0
2.36,203.553,194,190.534,120,0,-3.51719e-09,0
2.38,205.953,194,192.934,120,0,0,0
2.4,208.353,194,195.334,120,0,0,0
2.42,210.753,194,197.734,120,-7.03437e-11,-3.51719e-09,0
2.44,213.153,194,200.134,120,7.03437e-11,7.03437e-09,0
2.46,215.552,194,202.533,119.95,-2.5,-125,0
2.48,217.944,194,204.925,119.6,-17.5,-750,0
2.5,220.315,194,207.296,118.55,-52.5,-1750,0
2.52,222.655,194,209.636,117,-77.5,-1250,0
2.54,224.962,194,211.943,115.35,-82.5,-250,0
2.56,227.238,194,214.219,113.8,-77.5,250,0
2.58,229.481,194,216.462,112.15,-82.5,-250,0
2.6,231.693,194,218.674,110.6,-77.5,250,0
2.62,233.872,194,220.853,108.95,-82.5,-250,0
2.64,236.02,194,223.001,107.4,-77.5,250,0
2.66,238.136,194,225.117,105.8,-80,-125,0
2.68,240.219,194,227.2,104.15,-82.5,-125,0
2.7,242.271,194,229.252,102.6,-77.5,250,0
2.72,244.29,194,231.271,100.95,-82.5,-250,0
2.74,246.278,194,233.259,99.4,-77.5,250,0
2.76,248.233,194,235.214,97.75,-82.5,-250,0
2.78,250.157,194,237.138,96.2,-77.5,250,0
2.8,252.048,194,239.029,94.55,-82.5,-250,0
2.82,253.908,194,240.889,93,-77.5,250,0
2.84,255.736,194,242.717,91.4,-80,-125,0
2.86,257.531,194,244.512,89.75,-82.5,-125,0
2.88,259.295,194,246.276,88.2,-77.5,250,0
2.9,261.026,194,248.007,86.55,-82.5,-250,0
2.92,262.726,194,249.707,85,-77.5,250,0
2.94,264.393,194,251.374,83.35,-82.5,-250,0
2.96,266.029,194,253.01,81.8,-77.5,250,0
2.98,267.632,194,254.613,80.15,-82.5,-250,0
3,269.204,194,256.185,78.6,-77.5,250,0
3.02,270.744,194,257.725,77,-80,-125,0
3.04,272.251,194,259.232,75.35,-82.5,-125,0
3.06,273.727,194,260.708,73.8,-77.5,250,0
3.08,275.17,194,262.151,72.15,-82.5,-250,0
3.1,276.582,194,263.563,70.6,-77.5,250,0
3.12,277.961,194,264.942,68.95,-82.5,-250,0
3.14,279.309,194,266.29,67.4,-77.5,250,0
3.16,280.624,194,267.605,65.75,-82.5,-250,0
3.18,281.908,194,268.889,64.2,-77.5,250,0
3.2,283.16,194,270.141,62.6,-80,-125,0
3.22,284.379,194,271.36,60.95,-82.5,-125,0
3.24,285.567,194,272.548,59.4,-77.5,250,0
3.26,286.722,194,273.703,57.75,-82.5,-250,0
3.28,287.846,194,274.827,56.2,-77.5,250,0
3.3,288.937,194,275.918,54.55,-82.5,-250,0
3.32,289.997,194,276.978,53,-77.5,250,0
3.34,291.024,194,278.005,51.35,-82.5,-250,0
3.36,292.02,194,279.001,49.8,-77.5,250,0
3.38,292.984,194,279.965,48.2,-80,-125,0
3.4,293.915,194,280.896,46.55,-82.5,-125,0
3.42,294.815,194,281.796,45,-77.5,250,0
3.44,295.682,194,282.663,43.35,-82.5,-250,0
3.46,296.518,194,283.499,41.8,-77.5,250,0
3.48,297.321,194,284.302,40.15,-82.5,-250,0
3.5,298.093,194,285.074,38.6,-77.5,250,0
3.52,298.832,194,285.813,36.95,-82.5,-250,0
3.54,299.54,194,286.521,35.4,-77.5,250,0
3.56,300.216,194,287.197,33.8,-80,-125,0
3.58,300.859,194,287.84,32.15,-82.5,-125,0
3.6,301.471,194,288.452,30.6,-77.5,250,0
3.62,302.05,194,289.031,28.95,-82.5,-250,0
3.64,302.598,194,289.579,27.4,-77.5,250,0
3.66,303.113,194,290.094,25.75,-82.5,-250,0
3.68,303.597,194,290.578,24.2,-77.5,250,0
3.7,304.048,194,291.029,22.55,-82.5,-250,0
3.72,304.468,194,291.449,21,-77.5,250,0
3.74,304.856,194,291.837,19.4,-80,-125,0
3.76,305.211,194,292.192,17.75,-82.5,-125,0
3.78,305.535,194,292.516,16.2,-77.5,250,0
3.8,305.826,194,292.807,14.55,-82.5,-250,0
3.82,306.086,194,293.067,13,-77.5,250,0
3.84,306.313,194,293.294,11.35,-82.5,-250,0
3.86,306.509,194,293.49,9.8,-77.5,250,0
3.88,306.672,194,293.653,8.15,-82.5,-250,0
3.9,306.804,194,293.785,6.6,-77.5,250,0
3.92,306.904,194,293.885,5,-80,-125,0
3.94,306.971,194,293.952,3.35,-82.5,-125,0
3.96,307.007,194,293.988,1.8,-77.5,250,0
3.98,307.018,194,293.999,0.55,-62.5,750,0
4,307.019,194,294,0.05,-25,1875,0
