"time","x","y","position","velocity","acceleration","jerk","heading"
0,0,300,0,0,120,0,0
0.02,0.154919,300,0.154919,2.4,120,0,-0.00259178
0.04,0.309839,300,0.309839,4.8,120,0,-0.00518355
0.06,0.464758,300,0.464758,7.2,120,0,-0.00777533
0.08,0.619677,300,0.619677,9.6,120,0,-0.0103671
0.1,0.774597,300,0.774597,12,120,0,-0.0129589
0.12,0.929516,300,0.929516,14.4,120,0,-0.0155507
0.14,1.20384,300,1.20384,16.8,120,0,-0.0219917
0.16,1.57785,300,1.57785,19.2,120,0,-0.0316461
0.18,1.95186,300,1.95186,21.6,120,0,-0.0413005
0.2,2.42468,299.999,2.42468,24,120,0,-0.0635873
0.22,2.9121,299.999,2.9121,26.4,120,0,-0.0877402
0.24,3.4739,299.998,3.4739,28.8,120,0,-0.124023
0.26,4.0591,299.996,4.0591,31.2,120,0,-0.164291
0.28,4.71534,299.994,4.71535,33.6,120,0,-0.217868
0.3,5.41101,299.991,5.41103,36,103.559,0,-0.285547
0.32,6.14699,299.987,6.14702,38.2491,68.2386,0,-0.366454
0.34,6.92645,299.982,6.92649,39.8491,5.88071,0,-0.457787
0.36,7.72448,299.974,7.72456,40,0,0,-0.57123
0.38,8.52443,299.966,8.52456,40,0,0,-0.693867
0.4,9.32436,299.955,9.32456,40,0,0,-0.826059
0.42,10.1243,299.943,10.1246,40,0,0,-0.969787
0.44,10.9241,299.928,10.9246,40,0,0,-1.12891
0.46,11.724,299.911,11.7246,40,0,0,-1.29518
0.48,12.5237,299.892,12.5246,40,0,0,-1.47851
0.5,13.3234,299.87,13.3246,40,0,0,-1.67415
0.52,14.123,299.846,14.1246,40,0,0,-1.87791
0.54,14.9226,299.818,14.9246,40,0,0,-2.09597
0.56,15.722,299.787,15.7246,40,0,0,-2.33071
0.58,16.5212,299.753,16.5246,40,0,0,-2.57331
0.6,17.3204,299.715,17.3246,40,0,0,-2.82992
0.62,18.1193,299.674,18.1246,40,0,0,-3.1041
0.64,18.918,299.629,18.9246,40,0,0,-3.38782
0.66,19.7165,299.58,19.7246,40,0,0,-3.68708
0.68,20.5147,299.526,20.5246,40,0,0,-4.00292
0.7,21.3126,299.468,21.3246,40,0,0,-4.33139
0.72,22.1101,299.405,22.1246,40,0,0,-4.67083
0.74,22.9073,299.338,22.9246,40,0,0,-5.0318
0.76,23.704,299.265,23.7246,40,0,0,-5.4094
0.78,24.5002,299.187,24.5246,40,0,0,-5.79765
0.8,25.2958,299.104,25.3246,40,0,0,-6.20398
0.82,26.0908,299.014,26.1246,40,0,0,-6.63235
0.84,26.8851,298.919,26.9246,40,0,0,-7.07383
0.86,27.6786,298.818,27.7246,40,0,0,-7.53252
0.88,28.4713,298.709,28.5246,40,0,0,-8.01458
0.9,29.263,298.595,29.3246,40,0,0,-8.51525
0.92,30.0536,298.473,30.1246,40,0,0,-9.03012
0.94,30.8431,298.344,30.9246,40,0,0,-9.56408
0.96,31.6314,298.207,31.7246,40,0,0,-10.1298
0.98,32.4182,298.062,32.5246,40,0,0,-10.7125
1,33.2035,297.91,33.3246,40,0,0,-11.312
1.02,33.9871,297.749,34.1246,40,0,0,-11.9317
1.04,34.7689,297.579,34.9246,40,0,0,-12.5855
1.06,35.5487,297.4,35.7246,40,0,0,-13.2611
1.08,36.3263,297.212,36.5246,40,0,0,-13.9556
1.1,37.1015,297.015,37.3246,40,0,0,-14.675
1.12,37.8741,296.807,38.1246,40,0,0,-15.423
1.14,38.6438,296.589,38.9246,40,0,0,-16.1981
1.16,39.4105,296.361,39.7246,40,0,0,-16.9988
1.18,40.1739,296.122,40.5246,40,0,0,-17.8229
1.2,40.9337,295.871,41.3246,40,0,0,-18.676
1.22,41.6897,295.609,42.1246,40,0,0,-19.5604
1.24,42.4414,295.336,42.9246,40,0,0,-20.4708
1.26,43.1886,295.05,43.7246,40,0,0,-21.4096
1.28,43.931,294.752,44.5246,40,0,0,-22.3734
1.3,44.6682,294.441,45.3246,40,0,0,-23.3668
1.32,45.3997,294.117,46.1246,40,0,0,-24.3914
1.34,46.1253,293.781,46.9246,40,0,0,-25.4426
1.36,46.8445,293.43,47.7246,40,0,0,-26.5221
1.38,47.5569,293.066,48.5246,40,0,0,-27.6248
1.4,48.2621,292.689,49.3246,40,0,0,-28.7526
1.42,48.9596,292.297,50.1246,40,0,0,-29.9064
1.44,49.649,291.891,50.9246,40,0,0,-31.0872
1.46,50.3298,291.471,51.7246,40,0,0,-32.2913
1.48,51.0015,291.036,52.5246,40,0,0,-33.5134
1.5,51.6638,290.588,53.3246,40,0,0,-34.7526
1.52,52.3161,290.124,54.1246,40,0,0,-36.0079
1.54,52.958,289.647,54.9246,40,0,0,-37.2805
1.56,53.589,289.155,55.7246,40,0,0,-38.569
1.58,54.2089,288.65,56.5246,40,0,0,-39.8662
1.6,54.817,288.13,57.3246,40,0,0,-41.1701
1.62,55.4132,287.596,58.1246,40,0,0,-42.479
1.64,55.997,287.049,58.9246,40,0,0,-43.7911
1.66,56.5681,286.489,59.7246,40,0,0,-45.1035
1.68,57.1262,285.916,60.5246,40,0,0,-46.413
1.7,57.6711,285.33,61.3246,40,0,0,-47.7171
1.72,58.2026,284.733,62.1246,40,0,0,-49.0134
1.74,58.7204,284.123,62.9246,40,0,0,-50.2992
1.76,59.2245,283.502,63.7246,40,0,0,-51.5709
1.78,59.7147,282.869,64.5246,40,0,0,-52.829
1.8,60.191,282.227,65.3246,40,0,0,-54.0723
1.82,60.6534,281.574,66.1246,40,0,0,-55.2985
1.84,61.1019,280.911,66.9246,40,0,0,-56.4996
1.86,61.5364,280.24,67.7246,40,0,0,-57.6752
1.88,61.9572,279.559,68.5246,40,0,0,-58.8296
1.9,62.3643,278.871,69.3246,40,0,0,-59.9622
1.92,62.7579,278.174,70.1246,40,0,0,-61.0728
1.94,63.1381,277.47,70.9246,40,0,0,-62.1578
1.96,63.5051,276.759,71.7246,40,0,0,-63.2081
1.98,63.8592,276.042,72.5246,40,0,0,-64.2315
2,64.2005,275.319,73.3246,40,0,0,-65.2297
2.02,64.5293,274.589,74.1246,40,0,0,-66.2041
2.04,64.8459,273.855,74.9246,40,0,0,-67.1521
2.06,65.1505,273.115,75.7246,40,0,0,-68.0701
2.08,65.4433,272.37,76.5246,40,0,0,-68.9574
2.1,65.7248,271.622,77.3246,40,0,0,-69.818
2.12,65.9951,270.869,78.1246,40,0,0,-70.6564
2.14,66.2546,270.112,78.9246,40,0,0,-71.4702
2.16,66.5035,269.352,79.7246,40,0,0,-72.2571
2.18,66.7421,268.588,80.5246,40,0,0,-73.0148
2.2,66.9707,267.821,81.3246,40,0,0,-73.7481
2.22,67.1897,267.052,82.1246,40,0,0,-74.462
2.24,67.3992,266.28,82.9246,40,0,0,-75.1549
2.26,67.5995,265.505,83.7246,40,0,0,-75.8198
2.28,67.791,264.729,84.5246,40,0,0,-76.4615
2.3,67.9739,263.95,85.3246,40,0,0,-77.0837
2.32,68.1484,263.169,86.1246,40,0,0,-77.6897
2.34,68.3149,262.387,86.9246,40,0,0,-78.2775
2.36,68.4736,261.602,87.7246,40,0,0,-78.8345
2.38,68.6246,260.817,88.5246,40,0,0,-79.3763
2.4,68.7683,260.03,89.3246,40,0,0,-79.9045
2.42,68.9049,259.242,90.1246,40,0,0,-80.4177
2.44,69.0347,258.452,90.9246,40,0,0,-80.9061
2.46,69.1577,257.662,91.7246,40,0,0,-81.3784
2.48,69.2743,256.87,92.5246,40,0,0,-81.8393
2.5,69.3847,256.078,93.3246,40,0,0,-82.2845
2.52,69.4891,255.285,94.1246,40,0,0,-82.712
2.54,69.5876,254.491,94.9246,40,0,0,-83.1263
2.56,69.6804,253.696,95.7246,40,0,0,-83.529
2.58,69.7678,252.901,96.5246,40,0,0,-83.9148
2.6,69.8499,252.105,97.3246,40,0,0,-84.2872
2.62,69.9269,251.309,98.1246,40,0,0,-84.6504
2.64,69.999,250.512,98.9246,40,0,0,-85.0036
2.66,70.0663,249.715,99.7246,40,0,0,-85.3372
2.68,70.129,248.918,100.525,40,0,0,-85.6626
2.7,70.1872,248.12,101.325,40,0,0,-85.9794
2.72,70.2411,247.322,102.125,40,0,0,-86.2855
2.74,70.2908,246.523,102.925,40,0,0,-86.5782
2.76,70.3365,245.724,103.725,40,0,0,-86.8637
2.78,70.3782,244.925,104.525,40,0,0,-87.138
2.8,70.4163,244.126,105.325,40,0,0,-87.4026
2.82,70.4506,243.327,106.125,40,0,0,-87.6599
2.84,70.4815,242.528,106.925,40,0,0,-87.9103
2.86,70.509,241.728,107.725,40,0,0,-88.1462
2.88,70.5332,240.929,108.525,40,0,0,-88.3769
2.9,70.5542,240.129,109.325,40,38.9467,0,-88.6005
2.92,70.5723,239.325,110.129,40.3737,120,0,-88.8167
2.94,70.5878,238.496,110.958,42.7737,120,0,-89.0313
2.96,70.6009,237.614,111.84,45.1737,120,0,-89.2531
2.98,70.6112,236.685,112.768,47.5737,120,0,-89.4729
3,70.6182,235.71,113.744,49.9737,120,0,-89.6969
3.02,70.6215,234.687,114.767,52.3737,120,0,-89.9202
3.04,70.6208,233.617,115.837,54.7737,120,0,-90.1426
3.06,70.6158,232.5,116.954,57.1737,120,0,-90.3654
3.08,70.6061,231.331,118.123,59.5737,120,0,-90.5817
3.1,70.5913,230.114,119.34,61.9737,120,0,-90.797
3.12,70.5714,228.851,120.603,64.3737,120,0,-91.0049
3.14,70.546,227.542,121.912,66.7737,120,0,-91.2085
3.16,70.5149,226.182,123.273,69.1737,120,0,-91.4038
3.18,70.478,224.774,124.681,71.5737,120,0,-91.5915
3.2,70.4353,223.321,126.135,73.9737,120,0,-91.7715
3.22,70.3865,221.817,127.64,76.3737,120,0,-91.9392
3.24,70.3317,220.268,129.19,78.7737,120,0,-92.0978
3.26,70.271,218.669,130.79,81.1737,120,0,-92.2452
3.28,70.2045,217.022,132.438,83.5737,120,0,-92.379
3.3,70.1322,215.33,134.132,85.9737,120,0,-92.5001
3.32,70.0544,213.588,135.875,88.3737,120,0,-92.608
3.34,69.9713,211.798,137.668,90.7737,120,0,-92.7012
3.36,69.8833,209.96,139.507,93.1737,120,0,-92.7793
3.38,69.7906,208.075,141.395,95.5737,120,0,-92.8414
3.4,69.6938,206.142,143.33,97.9737,120,0,-92.8871
3.42,69.5933,204.162,145.313,100.374,120,0,-92.9163
3.44,69.4896,202.133,147.345,102.774,120,0,-92.9282
3.46,69.3833,200.056,149.424,105.174,120,0,-92.9224
3.48,69.2752,197.931,151.552,107.574,120,0,-92.8982
3.5,69.1659,195.759,153.727,109.974,120,0,-92.8556
3.52,69.0563,193.539,155.95,112.374,120,0,-92.7951
3.54,68.947,191.269,158.222,114.774,120,0,-92.7154
3.56,68.839,188.952,160.541,117.174,120,0,-92.617
3.58,68.7332,186.588,162.908,119.574,47.3511,0,-92.5007
3.6,68.6313,184.192,165.306,120,0,0,-92.3676
3.62,68.5351,181.794,167.706,120,0,0,-92.2205
3.64,68.4454,179.396,170.106,120,0,0,-92.0615
3.66,68.3625,176.997,172.506,120,0,0,-91.8922
3.68,68.287,174.598,174.906,120,0,0,-91.7146
3.7,68.219,172.199,177.306,120,0,0,-91.5309
3.72,68.1588,169.8,179.706,120,0,0,-91.3434
3.74,68.1065,167.4,182.106,120,0,0,-91.1546
3.76,68.062,165.001,184.506,120,0,0,-90.9672
3.78,68.0254,162.601,186.906,120,0,0,-90.7843
3.8,67.9963,160.201,189.306,120,0,0,-90.6092
3.82,67.9743,157.801,191.706,120,0,0,-90.445
3.84,67.9589,155.401,194.106,120,0,0,-90.2957
3.86,67.9493,153.002,196.506,120,0,0,-90.1649
3.88,67.9448,150.602,198.906,120,0,0,-90.0566
3.9,67.9444,148.202,201.306,120,0,0,-89.9583
3.92,67.9485,145.802,203.706,120,0,0,-89.8521
3.94,67.9567,143.402,206.106,120,-4.2429,0,-89.7602
3.96,67.9684,141.006,208.501,119.162,-120,0,-89.6799
3.98,67.9831,138.647,210.861,116.762,-120,0,-89.6067
4,68.0004,136.336,213.172,114.362,-120,0,-89.5375
4.02,68.02,134.073,215.435,111.962,-120,0,-89.4687
4.04,68.0419,131.858,217.65,109.562,-120,0,-89.3974
4.06,68.0661,129.69,219.818,107.162,-120,0,-89.3208
4.08,68.0927,127.571,221.937,104.762,-120,0,-89.2373
4.1,68.1219,125.5,224.009,102.362,-120,0,-89.145
4.12,68.1539,123.477,226.032,99.9615,-120,0,-89.0423
4.14,68.1888,121.502,228.007,97.5615,-120,0,-88.9292
4.16,68.2268,119.575,229.934,95.1615,-120,0,-88.8033
4.18,68.2682,117.697,231.813,92.7615,-120,0,-88.6664
4.2,68.3132,115.867,233.643,90.3615,-120,0,-88.5155
4.22,68.3618,114.085,235.426,87.9615,-120,0,-88.3535
4.24,68.4142,112.35,237.162,85.5615,-120,0,-88.1783
4.26,68.4705,110.663,238.85,83.1615,-120,0,-87.9915
4.28,68.5307,109.026,240.488,80.7615,-120,0,-87.7922
4.3,68.5949,107.435,242.08,78.3615,-120,0,-87.5818
4.32,68.6628,105.895,243.622,75.9615,-120,0,-87.3609
4.34,68.7347,104.4,245.118,73.5615,-120,0,-87.129
4.36,68.81,102.956,246.564,71.1615,-120,0,-86.8887
4.38,68.8891,101.557,247.966,68.7615,-120,0,-86.6397
4.4,68.9711,100.211,249.314,66.3615,-120,0,-86.3816
4.42,69.0562,98.9108,250.617,63.9615,-120,0,-86.1189
4.44,69.1441,97.6569,251.874,61.5615,-120,0,-85.8494
4.46,69.2344,96.4527,253.082,59.1615,-120,0,-85.5745
4.48,69.3263,95.2993,254.239,56.7615,-120,0,-85.2975
4.5,69.42,94.1932,255.349,54.3615,-120,0,-85.0186
4.52,69.5148,93.135,256.411,51.9615,-120,0,-84.7368
4.54,69.6102,92.1248,257.426,49.5615,-120,0,-84.4557
4.56,69.7059,91.1628,258.393,47.1615,-120,0,-84.1774
4.58,69.8013,90.2486,259.312,44.7615,-120,0,-83.902
4.6,69.896,89.3812,260.184,42.3615,-97.8795,0,-83.6295
4.62,69.9898,88.5581,261.013,40,0,0,-83.3609
4.64,70.0841,87.7637,261.813,40,0,0,-83.0913
4.66,70.1822,86.9697,262.613,40,0,0,-82.8136
4.68,70.2842,86.1762,263.413,40,0,0,-82.5274
4.7,70.3902,85.3833,264.213,40,0,0,-82.2316
4.72,70.5004,84.5909,265.013,40,0,0,-81.9238
4.74,70.615,83.7992,265.813,40,0,0,-81.6041
4.76,70.734,83.0081,266.613,40,0,0,-81.2745
4.78,70.8576,82.2177,267.413,40,0,0,-80.9352
4.8,70.986,81.428,268.213,40,0,0,-80.5855
4.82,71.1193,80.6392,269.013,40,0,0,-80.2243
4.84,71.2577,79.8513,269.813,40,0,0,-79.8455
4.86,71.4013,79.0643,270.613,40,0,0,-79.4551
4.88,71.5504,78.2783,271.413,40,0,0,-79.0529
4.9,71.705,77.4934,272.213,40,0,0,-78.6387
4.92,71.8655,76.7096,273.013,40,0,0,-78.212
4.94,72.0319,75.9271,273.813,40,0,0,-77.7685
4.96,72.2045,75.146,274.613,40,0,0,-77.3076
4.98,72.3834,74.3663,275.413,40,0,0,-76.8315
5,72.5689,73.5881,276.213,40,0,0,-76.3409
5.02,72.7611,72.8115,277.013,40,0,0,-75.8355
5.04,72.9603,72.0367,277.813,40,0,0,-75.31
5.06,73.1668,71.2638,278.613,40,0,0,-74.768
5.08,73.3806,70.4929,279.413,40,0,0,-74.2096
5.1,73.6021,69.7242,280.213,40,0,0,-73.6334
5.12,73.8314,68.9578,281.013,40,0,0,-73.0376
5.14,74.0689,68.1938,281.813,40,0,0,-72.4164
5.16,74.3147,67.4325,282.613,40,0,0,-71.776
5.18,74.5691,66.6741,283.413,40,0,0,-71.1163
5.2,74.8324,65.9186,284.213,40,0,0,-70.4369
5.22,75.1047,65.1664,285.013,40,0,0,-69.7373
5.24,75.3864,64.4177,285.813,40,0,0,-69.0104
5.26,75.6777,63.6726,286.613,40,0,0,-68.2616
5.28,75.9789,62.9314,287.413,40,0,0,-67.4908
5.3,76.2902,62.1945,288.213,40,0,0,-66.6978
5.32,76.6118,61.462,289.013,40,0,0,-65.8821
5.34,76.944,60.7343,289.813,40,0,0,-65.0336
5.36,77.2871,60.0116,290.613,40,0,0,-64.1609
5.38,77.6413,59.2942,291.413,40,0,0,-63.2644
5.4,78.0068,58.5826,292.213,40,0,0,-62.3444
5.42,78.3838,57.8771,293.013,40,0,0,-61.4006
5.44,78.7726,57.1779,293.813,40,0,0,-60.4256
5.46,79.1734,56.4855,294.613,40,0,0,-59.4267
5.48,79.5863,55.8003,295.413,40,0,0,-58.4043
5.5,80.0115,55.1227,296.213,40,0,0,-57.359
5.52,80.4491,54.453,297.013,40,0,0,-56.2911
5.54,80.8993,53.7918,297.813,40,0,0,-55.1945
5.56,81.3622,53.1393,298.613,40,0,0,-54.0766
5.58,81.8379,52.4961,299.413,40,0,0,-52.9387
5.6,82.3263,51.8625,300.213,40,0,0,-51.7818
5.62,82.8276,51.2391,301.013,40,0,0,-50.607
5.64,83.3417,50.6261,301.813,40,0,0,-49.4108
5.66,83.8685,50.0241,302.613,40,0,0,-48.2
5.68,84.408,49.4334,303.413,40,0,0,-46.9765
5.7,84.96,48.8544,304.213,40,0,0,-45.7419
5.72,85.5245,48.2875,305.013,40,0,0,-44.4977
5.74,86.1012,47.7331,305.813,40,0,0,-43.2444
5.76,86.6899,47.1914,306.613,40,0,0,-41.9867
5.78,87.2904,46.6628,307.413,40,0,0,-40.7266
5.8,87.9023,46.1476,308.213,40,0,0,-39.4662
5.82,88.5255,45.6459,309.013,40,0,0,-38.2071
5.84,89.1595,45.1581,309.813,40,0,0,-36.9536
5.86,89.804,44.6842,310.613,40,0,0,-35.7071
5.88,90.4586,44.2243,311.413,40,0,0,-34.4695
5.9,91.123,43.7787,312.213,40,0,0,-33.2423
5.92,91.7967,43.3474,313.013,40,0,0,-32.0274
5.94,92.4794,42.9303,313.813,40,0,0,-30.8313
5.96,93.1705,42.5274,314.613,40,0,0,-29.6522
5.98,93.8698,42.1388,315.413,40,0,0,-28.4909
6,94.5767,41.7643,316.213,40,0,0,-27.3486
6.02,95.2908,41.4038,317.013,40,0,0,-26.2263
6.04,96.0118,41.0572,317.813,40,0,0,-25.1336
6.06,96.7393,40.7243,318.613,40,0,0,-24.0647
6.08,97.4727,40.4048,319.413,40,0,0,-23.0195
6.1,98.2118,40.0987,320.213,40,0,0,-21.9983
6.12,98.9562,39.8056,321.013,40,0,0,-21.0015
6.14,99.7055,39.5253,321.813,40,0,0,-20.0373
6.16,100.459,39.2575,322.613,40,0,0,-19.0988
6.18,101.217,39.002,323.413,40,0,0,-18.1854
6.2,101.979,38.7584,324.213,40,0,0,-17.2971
6.22,102.745,38.5265,325.013,40,0,0,-16.4337
6.24,103.514,38.3058,325.813,40,0,0,-15.603
6.26,104.286,38.0962,326.613,40,0,0,-14.7972
6.28,105.061,37.8973,327.413,40,0,0,-14.0165
6.3,105.838,37.7088,328.213,40,0,0,-13.2616
6.32,106.618,37.5303,329.013,40,0,0,-12.5336
6.34,107.4,37.3616,329.813,40,0,0,-11.836
6.36,108.184,37.2022,330.613,40,0,0,-11.1614
6.38,108.97,37.052,331.413,40,0,0,-10.5089
6.4,109.757,36.9106,332.213,40,0,0,-9.87806
6.42,110.546,36.7777,333.013,40,0,0,-9.26849
6.44,111.336,36.6529,333.813,40,0,0,-8.68632
6.46,112.128,36.5361,334.613,40,0,0,-8.13013
6.48,112.92,36.4267,335.413,40,0,0,-7.5952
6.5,113.714,36.3247,336.213,40,0,0,-7.07938
6.52,114.508,36.2297,337.013,40,0,0,-6.58227
6.54,115.303,36.1414,337.813,40,0,0,-6.10891
6.56,116.099,36.0595,338.613,40,0,0,-5.65354
6.58,116.895,35.9838,339.413,40,0,0,-5.21962
6.6,117.692,35.914,340.213,40,0,0,-4.80652
6.62,118.49,35.8499,341.013,40,0,0,-4.40983
6.64,119.288,35.7911,341.813,40,0,0,-4.03404
6.66,120.086,35.7374,342.613,40,0,0,-3.67407
6.68,120.884,35.6887,343.413,40,0,0,-3.33186
6.7,121.683,35.6445,344.213,40,0,0,-3.00798
6.72,122.482,35.6048,345.013,40,0,0,-2.70154
6.74,123.281,35.5692,345.813,40,0,0,-2.41384
6.76,124.081,35.5375,346.613,40,0,0,-2.14039
6.78,124.88,35.5096,347.413,40,0,0,-1.8829
6.8,125.68,35.485,348.213,40,0,0,-1.64235
6.82,126.48,35.4638,349.013,40,0,0,-1.4188
6.84,127.279,35.4455,349.813,40,0,0,-1.21258
6.86,128.079,35.43,350.613,40,0,0,-1.01966
6.88,128.879,35.4171,351.413,40,0,0,-0.842541
6.9,129.679,35.4066,352.213,40,0,0,-0.682023
6.92,130.479,35.3982,353.013,40,0,0,-0.537236
6.94,131.279,35.3917,353.813,40,0,0,-0.409208
6.96,132.079,35.3869,354.613,40,0,0,-0.294165
6.98,132.879,35.3835,355.413,40,0,0,-0.196208
7,133.679,35.3815,356.213,40,0,0,-0.115583
7.02,134.479,35.3804,357.013,40,0,0,-0.0491364
7.04,135.279,35.3802,357.813,40,0,0,-0.00169574
7.06,136.079,35.3804,358.613,40,0,0,0.0277505
7.08,136.879,35.381,359.413,40,49.5392,0,0.0491665
7.1,137.687,35.3819,360.221,40.6385,120,0,0.0674617
7.12,138.519,35.383,361.053,43.0385,120,0,0.0833342
7.14,139.404,35.3844,361.938,45.4385,120,0,0.0933844
7.16,140.338,35.386,362.872,47.8385,120,0,0.101834
7.18,141.319,35.3878,363.853,50.2385,120,0,0.104286
7.2,142.347,35.3897,364.881,52.6385,120,0,0.103023
7.22,143.422,35.3916,365.956,55.0385,120,0,0.0968992
7.24,144.547,35.3934,367.081,57.4385,120,0,0.0846229
7.26,145.722,35.395,368.256,59.8385,120,0,0.067755
7.28,146.943,35.3962,369.477,62.2385,120,0,0.0439772
7.3,148.211,35.3969,370.745,64.6385,120,0,0.0151096
7.32,149.526,35.3969,372.06,67.0385,120,0,-0.0195177
7.34,150.893,35.396,373.427,69.4385,120,0,-0.0603705
7.36,152.304,35.3939,374.838,71.8385,120,0,-0.106096
7.38,153.766,35.3906,376.3,74.2385,120,0,-0.158191
7.4,155.274,35.3857,377.808,76.6385,120,0,-0.214652
7.42,156.831,35.379,379.365,79.0385,120,0,-0.275756
7.44,158.434,35.3704,380.968,81.4385,120,0,-0.340684
7.46,160.088,35.3596,382.622,83.8385,120,0,-0.409011
7.48,161.789,35.3464,384.323,86.2385,120,0,-0.479732
7.5,163.536,35.3307,386.07,88.6385,120,0,-0.551972
7.52,165.333,35.3122,387.868,91.0385,120,0,-0.62475
7.54,167.179,35.2909,389.713,93.4385,120,0,-0.696967
7.56,169.071,35.2667,391.606,95.8385,120,0,-0.767305
7.58,171.012,35.2395,393.547,98.2385,120,0,-0.834371
7.6,173,35.2095,395.535,100.638,120,0,-0.896756
7.62,175.037,35.1765,397.572,103.038,120,0,-0.952756
7.64,177.121,35.1409,399.657,105.438,120,0,-1.00038
7.66,179.253,35.1029,401.789,107.838,120,0,-1.03799
7.68,181.433,35.0629,403.969,110.238,120,0,-1.06354
7.7,183.662,35.0212,406.198,112.638,120,0,-1.07457
7.72,185.934,34.9785,408.471,114.047,-120,0,-1.06876
7.74,188.191,34.9368,410.728,111.647,-120,0,-1.04457
7.76,190.4,34.8972,412.938,109.247,-120,0,-1.00167
7.78,192.561,34.8605,415.099,106.847,-120,0,-0.939751
7.8,194.673,34.8272,417.211,104.447,-120,0,-0.858931
7.82,196.737,34.7979,419.276,102.047,-120,0,-0.759467
7.84,198.754,34.7731,421.293,99.6467,-120,0,-0.641063
7.86,200.723,34.7534,423.262,97.2467,-120,0,-0.503473
7.88,202.644,34.7389,425.183,94.8467,-120,0,-0.347907
7.9,204.518,34.7303,427.056,92.4467,-120,0,-0.174526
7.92,206.342,34.7276,428.881,90.0467,-120,0,0.0159093
7.94,208.118,34.7312,430.657,87.6467,-120,0,0.223249
7.96,209.847,34.7412,432.386,85.2467,-120,0,0.447047
7.98,211.529,34.7577,434.068,82.8467,-120,0,0.687121
8,213.16,34.7807,435.699,80.4467,-120,0,0.94128
8.02,214.745,34.8103,437.284,78.0467,-120,0,1.21013
8.04,216.282,34.8465,438.822,75.6467,-120,0,1.49259
8.06,217.769,34.8889,440.31,73.2467,-120,0,1.78655
8.08,219.21,34.9376,441.751,70.8467,-120,0,2.09362
8.1,220.602,34.9922,443.144,68.4467,-120,0,2.40774
8.12,221.944,35.0523,444.488,66.0467,-120,0,2.73601
8.14,223.24,35.1179,445.785,63.6467,-120,0,3.06919
8.16,224.489,35.1885,447.036,61.2467,-120,0,3.4112
8.18,225.685,35.2633,448.235,58.8467,-120,0,3.75536
8.2,226.834,35.3421,449.386,56.4467,-120,0,4.10829
8.22,227.935,35.4245,450.491,54.0467,-120,0,4.46017
8.24,228.988,35.5098,451.547,51.6467,-120,0,4.81505
8.26,229.993,35.5975,452.555,49.2467,-120,0,5.16959
8.28,230.949,35.6868,453.516,46.8467,-120,0,5.52047
