"time","x","y","position","velocity","acceleration","jerk","heading"
0,0,285,0,0,0,0,0
0.02,0.15424,285,0.15424,7.71202,385.601,19280.1,-0.00259178
0.04,0.308482,285,0.308482,7.71207,0.00250655,-19279.9,-0.00518355
0.06,0.462722,285,0.462722,7.71202,-0.00250654,-0.250654,-0.00777533
0.08,0.616963,285,0.616963,7.71202,6.55544e-06,0.125655,-0.0103671
0.1,0.771204,285,0.771204,7.71207,0.00248038,0.123691,-0.0129589
0.12,0.925445,285,0.925445,7.71202,-0.00249998,-0.249018,-0.0155507
0.14,1.19808,285,1.19808,13.6319,295.993,14799.8,-0.0219917
0.16,1.56957,285,1.56957,18.5741,247.112,-2444.07,-0.0316461
0.18,1.94105,285,1.94105,18.5741,5.92078e-07,-12355.6,-0.0413005
0.2,2.40803,284.999,2.40803,23.3493,238.76,11938,-0.0635873
0.22,2.88913,284.999,2.88913,24.0548,35.276,-10174.2,-0.0877402
0.24,3.44143,284.998,3.44143,27.6151,178.013,7136.86,-0.124023
0.26,4.01609,284.996,4.01609,28.7331,55.898,-6105.76,-0.164291
0.28,4.6583,284.994,4.65831,32.1108,168.888,5649.52,-0.217868
0.3,5.33625,284.991,5.33627,33.8979,89.3538,-3976.73,-0.285547
0.32,6.05105,284.987,6.05108,35.7405,92.1283,138.724,-0.366454
0.34,6.8066,284.982,6.80664,37.7783,101.889,488.042,-0.457787
0.36,7.57493,284.975,7.57501,38.4185,32.0142,-3493.75,-0.57123
0.38,8.34278,284.967,8.3429,38.3942,-1.21769,-1661.6,-0.693867
0.4,9.10811,284.957,9.1083,38.2699,-6.2147,-249.85,-0.826059
0.42,9.87042,284.945,9.8707,38.1201,-7.48934,-63.7323,-0.969787
0.44,10.6286,284.931,10.629,37.9141,-10.2994,-140.502,-1.12891
0.46,11.385,284.915,11.3855,37.8276,-4.32776,298.582,-1.29518
0.48,12.1367,284.897,12.1375,37.5965,-11.5531,-361.267,-1.47851
0.5,12.8852,284.876,12.8862,37.4392,-7.86468,184.42,-1.67415
0.52,13.6315,284.854,13.6329,37.3308,-5.42059,122.204,-1.87791
0.54,14.374,284.828,14.3759,37.1501,-9.03438,-180.69,-2.09597
0.56,15.112,284.799,15.1144,36.9273,-11.1401,-105.287,-2.33071
0.58,15.8477,284.768,15.8508,36.8205,-5.33923,290.045,-2.57331
0.6,16.5798,284.733,16.5837,36.6461,-8.7195,-169.014,-2.82992
0.62,17.307,284.696,17.3119,36.4086,-11.8783,-157.939,-3.1041
0.64,18.0316,284.655,18.0376,36.2845,-6.20566,283.631,-3.38782
0.66,18.7519,284.611,18.7593,36.0828,-10.0825,-193.842,-3.68708
0.68,19.4676,284.563,19.4766,35.8669,-10.7953,-35.6412,-4.00292
0.7,20.1797,284.511,20.1906,35.7006,-8.31447,124.042,-4.33139
0.72,20.8886,284.455,20.9017,35.556,-7.23162,54.1424,-4.67083
0.74,21.5917,284.396,21.6072,35.2754,-14.0262,-339.73,-5.0318
0.76,22.2899,284.332,22.3084,35.0591,-10.8171,160.457,-5.4094
0.78,22.985,284.264,23.0068,34.9184,-7.03514,189.097,-5.79765
0.8,23.6748,284.192,23.7003,34.6771,-12.0677,-251.627,-6.20398
0.82,24.3583,284.114,24.3883,34.3966,-14.0241,-97.8191,-6.63235
0.84,25.0379,284.033,25.0726,34.2191,-8.87342,257.532,-7.07383
0.86,25.7123,283.947,25.7525,33.9909,-11.411,-126.88,-7.53252
0.88,26.3799,283.856,26.4264,33.6978,-14.6532,-162.11,-8.01458
0.9,27.0419,283.76,27.0952,33.4395,-12.9134,86.991,-8.51525
0.92,27.6993,283.659,27.7604,33.2583,-9.06364,192.488,-9.03012
0.94,28.3508,283.552,28.4206,33.009,-12.4647,-170.053,-9.56408
0.96,28.9932,283.441,29.0726,32.6006,-20.42,-397.766,-10.1298
0.98,29.63,283.323,29.7201,32.375,-11.2798,457.009,-10.7125
1,30.2612,283.201,30.363,32.1464,-11.4314,-7.57783,-11.312
1.02,30.8859,283.073,31.0007,31.8866,-12.9867,-77.7661,-11.9317
1.04,31.5005,282.939,31.6296,31.4453,-22.0661,-453.967,-12.5855
1.06,32.1079,282.8,32.2528,31.1605,-14.24,391.302,-13.2611
1.08,32.7088,282.655,32.871,30.9093,-12.5624,83.8815,-13.9556
1.1,33.3015,282.504,33.4825,30.5751,-16.7054,-207.151,-14.675
1.12,33.885,282.347,34.0868,30.2142,-18.0455,-67.0057,-15.423
1.14,34.4594,282.184,34.6839,29.8529,-18.0688,-1.16568,-16.1981
1.16,35.0252,282.016,35.2741,29.5131,-16.9878,54.0534,-16.9988
1.18,35.5828,281.842,35.8583,29.2095,-15.1779,90.4908,-17.8229
1.2,36.1305,281.661,36.4352,28.8423,-18.3605,-159.126,-18.676
1.22,36.6677,281.475,37.0037,28.429,-20.6682,-115.386,-19.5604
1.24,37.1955,281.283,37.5651,28.07,-17.9507,135.875,-20.4708
1.26,37.7131,281.085,38.1194,27.7145,-17.7719,8.93845,-21.4096
1.28,38.2214,280.881,38.6671,27.3828,-16.5838,59.4035,-22.3734
1.3,38.719,280.671,39.2071,27.0024,-19.024,-122.007,-23.3668
1.32,39.2052,280.456,39.7389,26.5903,-20.6017,-78.8866,-24.3914
1.34,39.6812,280.236,40.2634,26.221,-18.466,106.783,-25.4426
1.36,40.1464,280.009,40.781,25.8836,-16.8684,79.88,-26.5221
1.38,40.6017,279.776,41.2924,25.5662,-15.871,49.8713,-27.6248
1.4,41.0467,279.538,41.7968,25.2198,-17.3231,-72.606,-28.7526
1.42,41.4808,279.294,42.2948,24.9024,-15.8694,72.6889,-29.9064
1.44,41.9039,279.045,42.7857,24.547,-17.7672,-94.8939,-31.0872
1.46,42.3164,278.791,43.2705,24.2352,-15.5922,108.75,-32.2913
1.48,42.7195,278.53,43.7508,24.0157,-10.9721,231.005,-33.5134
1.5,43.1133,278.264,44.2259,23.7588,-12.8481,-93.7967,-34.7526
1.52,43.4976,277.99,44.6978,23.5932,-8.2778,228.514,-36.0079
1.54,43.8722,277.712,45.1644,23.3284,-13.2388,-248.051,-37.2805
1.56,44.2372,277.427,45.6272,23.141,-9.37402,193.24,-38.569
1.58,44.5939,277.137,46.0872,22.9982,-7.1373,111.836,-39.8662
1.6,44.9425,276.839,46.5459,22.9382,-3.00289,206.721,-41.1701
1.62,45.2834,276.533,47.0036,22.886,-2.6086,19.7142,-42.479
1.64,45.6165,276.221,47.4602,22.826,-2.99887,-19.5131,-43.7911
1.66,45.9424,275.902,47.9164,22.8134,-0.627961,118.545,-45.1035
1.68,46.2613,275.574,48.3735,22.853,1.9751,130.153,-46.413
1.7,46.5736,275.238,48.8323,22.9395,4.3269,117.59,-47.7171
1.72,46.8797,274.895,49.2922,22.9975,2.90013,-71.3382,-49.0134
1.74,47.1795,274.541,49.7558,23.176,8.92776,301.381,-50.2992
1.76,47.4738,274.179,50.2227,23.3463,8.51055,-20.8606,-51.5709
1.78,47.7622,273.806,50.6939,23.5626,10.8181,115.376,-52.829
1.8,48.0446,273.426,51.1678,23.6951,6.62419,-209.694,-54.0723
1.82,48.3215,273.034,51.647,23.9563,13.0622,321.899,-55.2985
1.84,48.5937,272.632,52.133,24.3005,17.2057,207.175,-56.4996
1.86,48.8609,272.219,52.6246,24.5814,14.0478,-157.891,-57.6752
1.88,49.1227,271.795,53.1229,24.9152,16.6912,132.169,-58.8296
1.9,49.3789,271.362,53.6258,25.1456,11.5182,-258.649,-59.9622
1.92,49.6294,270.919,54.1355,25.4853,16.9854,273.358,-61.0728
1.94,49.8745,270.464,54.6516,25.8028,15.8766,-55.4408,-62.1578
1.96,50.1154,269.998,55.1767,26.2584,22.7757,344.954,-63.2081
1.98,50.3508,269.521,55.7085,26.5875,16.4579,-315.887,-64.2315
2,50.5806,269.034,56.2467,26.9092,16.0845,-18.6714,-65.2297
2.02,50.8045,268.537,56.7922,27.2768,18.3807,114.811,-66.2041
2.04,51.0228,268.031,57.3434,27.5593,14.125,-212.784,-67.1521
2.06,51.2359,267.513,57.9033,27.9954,21.8061,384.053,-68.0701
2.08,51.4436,266.984,58.4715,28.409,20.6793,-56.3401,-68.9574
2.1,51.6458,266.447,59.0454,28.6957,14.3323,-317.348,-69.818
2.12,51.8419,265.901,59.626,29.0277,16.6005,113.408,-70.6564
2.14,52.0322,265.345,60.2132,29.3596,16.5973,-0.161533,-71.4702
2.16,52.217,264.781,60.8069,29.6856,16.2961,-15.0593,-72.2571
2.18,52.3964,264.206,61.4089,30.1014,20.7901,224.703,-73.0148
2.2,52.5701,263.623,62.0173,30.4183,15.846,-247.205,-73.7481
2.22,52.7379,263.034,62.6299,30.6339,10.7829,-253.159,-74.462
2.24,52.8999,262.437,63.2485,30.9261,14.6074,191.225,-75.1549
2.26,53.0565,261.83,63.8749,31.3198,19.686,253.932,-75.8198
2.28,53.2078,261.218,64.5061,31.5642,12.2198,-373.312,-76.4615
2.3,53.3534,260.597,65.1434,31.8646,15.0214,140.078,-77.0837
2.32,53.4933,259.971,65.785,32.0804,10.7868,-211.728,-77.6897
2.34,53.6278,259.339,66.4307,32.2822,10.0911,-34.7839,-78.2775
2.36,53.7575,258.697,67.0857,32.753,23.5394,672.413,-78.8345
2.38,53.8817,258.052,67.7433,32.8774,6.22281,-865.829,-79.3763
2.4,54.0005,257.401,68.405,33.0865,10.4527,211.497,-79.9045
2.42,54.1142,256.745,69.0704,33.2699,9.16863,-64.2057,-80.4177
2.44,54.2232,256.081,69.7431,33.6365,18.3317,458.154,-80.9061
2.46,54.3272,255.413,70.419,33.7935,7.85152,-524.009,-81.3784
2.48,54.4262,254.741,71.0989,33.9937,10.0089,107.869,-81.8393
2.5,54.5205,254.064,71.782,34.1552,8.07674,-96.6078,-82.2845
2.52,54.6103,253.382,72.4699,34.3962,12.0475,198.538,-82.712
2.54,54.6954,252.696,73.1615,34.5812,9.24856,-139.947,-83.1263
2.56,54.776,252.005,73.8565,34.7486,8.37095,-43.8802,-83.529
2.58,54.8523,251.311,74.5553,34.9394,9.54069,58.487,-83.9148
2.6,54.9244,250.612,75.258,35.1364,9.85249,15.5901,-84.2872
2.62,54.9922,249.911,75.9627,35.2315,4.75347,-254.951,-84.6504
2.64,55.056,249.206,76.6704,35.3894,7.89249,156.951,-85.0036
2.66,55.1159,248.496,77.3829,35.625,11.7827,194.509,-85.3372
2.68,55.172,247.784,78.0972,35.7137,4.43208,-367.53,-85.6626
2.7,55.2241,247.068,78.8144,35.8591,7.27121,141.956,-85.9794
2.72,55.2726,246.35,79.5341,35.9841,6.2499,-51.065,-86.2855
2.74,55.3175,245.628,80.258,36.1958,10.5853,216.769,-86.5782
2.76,55.359,244.903,80.9836,36.2781,4.11644,-323.442,-86.8637
2.78,55.3969,244.176,81.7118,36.4138,6.78425,133.39,-87.138
2.8,55.4317,243.446,82.4425,36.5318,5.89974,-44.2256,-87.4026
2.82,55.4631,242.715,83.1748,36.6187,4.34786,-77.5939,-87.6599
2.84,55.4915,241.981,83.9089,36.7021,4.16951,-8.91765,-87.9103
2.86,55.5169,241.243,84.6476,36.9357,11.6783,375.44,-88.1462
2.88,55.5392,240.504,85.3866,36.9485,0.638091,-552.01,-88.3769
2.9,55.5587,239.763,86.1283,37.0869,6.91988,314.089,-88.6005
2.92,55.5755,239.015,86.8759,37.3801,14.6636,387.187,-88.8167
2.94,55.5899,238.242,87.6489,38.6481,63.4001,2436.83,-89.0313
2.96,55.6022,237.418,88.4729,41.2015,127.669,3213.42,-89.2531
2.98,55.6118,236.547,89.3444,43.5757,118.709,-448.003,-89.4729
3,55.6184,235.631,90.2608,45.8191,112.171,-326.868,-89.6969
3.02,55.6215,234.666,91.2253,48.2273,120.409,411.872,-89.9202
3.04,55.6208,233.654,92.2371,50.5888,118.076,-116.616,-90.1426
3.06,55.6161,232.596,93.2958,52.9341,117.266,-40.5354,-90.3654
3.08,55.6069,231.483,94.4082,55.6207,134.327,853.063,-90.5817
3.1,55.5928,230.323,95.5689,58.0362,120.779,-677.4,-90.797
3.12,55.5737,229.114,96.7777,60.4364,120.01,-38.4322,-91.0049
3.14,55.5493,227.858,98.0336,62.7972,118.038,-98.5882,-91.2085
3.16,55.5194,226.549,99.3428,65.4613,133.205,758.336,-91.4038
3.18,55.4838,225.191,100.702,67.9672,125.294,-395.562,-91.5915
3.2,55.4425,223.785,102.109,70.3252,117.899,-369.734,-91.7715
3.22,55.3951,222.325,103.57,73.0444,135.961,903.08,-91.9392
3.24,55.3418,220.817,105.078,75.4224,118.9,-853.052,-92.0978
3.26,55.2825,219.257,106.64,78.0781,132.787,694.361,-92.2452
3.28,55.2174,217.645,108.253,80.6657,129.377,-170.51,-92.379
3.3,55.1465,215.984,109.915,83.092,121.317,-402.981,-92.5001
3.32,55.0699,214.271,111.63,85.7744,134.121,640.165,-92.608
3.34,54.988,212.505,113.398,88.3764,130.1,-201.039,-92.7012
3.36,54.9009,210.687,115.217,90.9829,130.327,11.3506,-92.7793
3.38,54.809,208.819,117.088,93.551,128.403,-96.1662,-92.8414
3.4,54.7128,206.898,119.012,96.1729,131.094,134.546,-92.8871
3.42,54.6127,204.925,120.987,98.7452,128.616,-123.92,-92.9163
3.44,54.5092,202.899,123.015,101.427,134.071,272.762,-92.9282
3.46,54.4028,200.821,125.097,104.062,131.76,-115.559,-92.9224
3.48,54.2944,198.689,127.231,106.704,132.116,17.8094,-92.8982
3.5,54.1845,196.506,129.417,109.295,129.544,-128.596,-92.8556
3.52,54.0741,194.27,131.655,111.927,131.604,102.991,-92.7951
3.54,53.9638,191.98,133.949,114.675,137.382,288.873,-92.7154
3.56,53.8546,189.637,136.294,117.264,129.454,-396.393,-92.617
3.58,53.7475,187.242,138.691,119.841,128.842,-30.5757,-92.5007
3.6,53.6441,184.812,141.124,121.651,90.4944,-1917.39,-92.3676
3.62,53.5464,182.375,143.562,121.922,13.5704,-3846.2,-92.2205
3.64,53.4551,179.936,146.003,122.065,7.15912,-320.562,-92.0615
3.66,53.3707,177.492,148.448,122.238,8.62843,73.4653,-91.8922
3.68,53.2937,175.047,150.895,122.334,4.82191,-190.326,-91.7146
3.7,53.2244,172.6,153.343,122.403,3.43191,-69.5002,-91.5309
3.72,53.1629,170.152,155.792,122.442,1.96625,-73.2829,-91.3434
3.74,53.1095,167.702,158.242,122.5,2.8873,46.0525,-91.1546
3.76,53.0641,165.254,160.69,122.424,-3.80904,-334.817,-90.9672
3.78,53.0268,162.806,163.138,122.408,-0.779314,151.486,-90.7843
3.8,52.9971,160.36,165.584,122.301,-5.3617,-229.119,-90.6092
3.82,52.9748,157.917,168.028,122.154,-7.32298,-98.064,-90.445
3.84,52.9591,155.478,170.467,121.957,-9.88058,-127.88,-90.2957
3.86,52.9494,153.045,172.9,121.663,-14.6837,-240.157,-90.1649
3.88,52.9448,150.617,175.328,121.418,-12.2637,121.002,-90.0566
3.9,52.9444,148.191,177.754,121.287,-6.55545,285.412,-89.9583
3.92,52.9485,145.763,180.182,121.39,5.17921,586.733,-89.8521
3.94,52.9568,143.339,182.606,121.204,-9.33306,-725.613,-89.7602
3.96,52.9686,140.922,185.023,120.853,-17.5558,-411.136,-89.6799
3.98,52.9835,138.544,187.401,118.91,-97.1039,-3977.4,-89.6067
4,53.0009,136.215,189.73,116.459,-122.571,-1273.34,-89.5375
4.02,53.0206,133.934,192.011,114.055,-120.211,117.956,-89.4687
4.04,53.0427,131.7,194.245,111.689,-118.305,95.3098,-89.3974
4.06,53.0672,129.512,196.433,109.409,-113.964,217.057,-89.3208
4.08,53.094,127.371,198.574,107.051,-117.904,-197.004,-89.2373
4.1,53.1236,125.276,200.67,104.768,-114.143,188.053,-89.145
4.12,53.156,123.226,202.72,102.507,-113.075,53.4022,-89.0423
4.14,53.1914,121.222,204.725,100.246,-113.055,1.00342,-88.9292
4.16,53.2301,119.262,206.685,98.0168,-111.457,79.9206,-88.8033
4.18,53.2723,117.348,208.599,95.7148,-115.096,-181.989,-88.6664
4.2,53.3182,115.478,210.47,93.5029,-110.595,225.086,-88.5155
4.22,53.368,113.654,212.295,91.2537,-112.462,-93.3417,-88.3535
4.24,53.4218,111.873,214.076,89.0829,-108.539,196.109,-88.1783
4.26,53.4797,110.137,215.813,86.8422,-112.038,-174.913,-87.9915
4.28,53.5418,108.448,217.503,84.5142,-116.4,-218.138,-87.7922
4.3,53.6083,106.802,219.151,82.3689,-107.265,456.794,-87.5818
4.32,53.6787,105.204,220.75,79.9664,-120.124,-642.99,-87.3609
4.34,53.7535,103.649,222.308,77.872,-104.721,770.165,-87.129
4.36,53.8321,102.142,223.816,75.4436,-121.417,-834.807,-86.8887
4.38,53.9149,100.678,225.283,73.3211,-106.125,764.613,-86.6397
4.4,54.001,99.2643,226.699,70.8033,-125.891,-988.326,-86.3816
4.42,54.0906,97.8955,228.071,68.5878,-110.773,755.92,-86.1189
4.44,54.1834,96.5712,229.398,66.3766,-110.561,10.5779,-85.8494
4.46,54.2791,95.2953,230.678,63.9775,-119.956,-469.743,-85.5745
4.48,54.3768,94.0696,231.907,61.4787,-124.939,-249.157,-85.2975
4.5,54.4767,92.8907,233.09,59.1539,-116.241,434.934,-85.0186
4.52,54.578,91.759,234.227,56.8106,-117.161,-46.0312,-84.7368
4.54,54.6804,90.6756,235.315,54.4143,-119.816,-132.746,-84.4557
4.56,54.7833,89.6411,236.354,51.9804,-121.698,-94.0922,-84.1774
4.58,54.8862,88.6552,237.346,49.5632,-120.859,41.9771,-83.902
4.6,54.9886,87.7168,238.29,47.1947,-118.423,121.781,-83.6295
4.62,55.0904,86.8239,239.188,44.9373,-112.869,277.678,-83.3609
4.64,55.193,85.9594,240.059,43.5279,-70.4706,2119.94,-83.0913
4.66,55.3,85.0932,240.932,43.6369,5.45105,3796.08,-82.8136
4.68,55.4116,84.2254,241.807,43.7478,5.54235,4.56499,-82.5274
4.7,55.5279,83.3558,242.684,43.8697,6.09591,27.6783,-82.2316
4.72,55.6492,82.4836,243.565,44.0304,8.03425,96.9171,-81.9238
4.74,55.7758,81.609,244.448,44.1824,7.60139,-21.6431,-81.6041
4.76,55.9076,80.7326,245.335,44.3145,6.60164,-49.9877,-81.2745
4.78,56.0449,79.8544,246.223,44.4417,6.36253,-11.9554,-80.9352
4.8,56.188,78.9744,247.115,44.5811,6.96851,30.2991,-80.5855
4.82,56.3371,78.0923,248.01,44.7273,7.31058,17.1033,-80.2243
4.84,56.4927,77.2068,248.909,44.9566,11.467,207.82,-79.8455
4.86,56.6546,76.3192,249.811,45.11,7.66869,-189.915,-79.4551
4.88,56.8234,75.4298,250.716,45.2656,7.78062,5.59648,-79.0529
4.9,56.9989,74.5385,251.625,45.4209,7.76387,-0.837507,-78.6387
4.92,57.1818,73.6452,252.536,45.5887,8.3898,31.2967,-78.212
4.94,57.3724,72.7492,253.453,45.8052,10.8276,121.888,-77.7685
4.96,57.571,71.8502,254.373,46.0303,11.2519,21.2152,-77.3076
4.98,57.7778,70.9491,255.298,46.2302,9.99412,-62.8873,-76.8315
5,57.9931,70.0459,256.226,46.4221,9.59669,-19.8714,-76.3409
5.02,58.2171,69.1409,257.159,46.6172,9.75353,7.84172,-75.8355
5.04,58.4506,68.2329,258.096,46.8786,13.0729,165.969,-75.31
5.06,58.6938,67.3229,259.038,47.0953,10.8319,-112.051,-74.768
5.08,58.9466,66.4111,259.984,47.3093,10.7033,-6.42868,-74.2096
5.1,59.2099,65.4975,260.935,47.5412,11.5948,44.5722,-73.6334
5.12,59.484,64.5816,261.891,47.7973,12.8054,60.5299,-73.0376
5.14,59.7697,63.6623,262.854,48.1346,16.8659,203.027,-72.4164
5.16,60.0671,62.7415,263.821,48.3826,12.3991,-223.339,-71.776
5.18,60.3764,61.8194,264.794,48.632,12.4669,3.38934,-71.1163
5.2,60.6983,60.8959,265.772,48.8966,13.2328,38.295,-70.4369
5.22,61.033,59.9715,266.755,49.1562,12.9784,-12.7189,-69.7373
5.24,61.3817,59.0447,267.745,49.5121,17.7963,240.893,-69.0104
5.26,61.7444,58.1171,268.741,49.8026,14.5256,-163.535,-68.2616
5.28,62.1216,57.1889,269.743,50.0928,14.5067,-0.942731,-67.4908
5.3,62.5137,56.2608,270.751,50.3781,14.2646,-12.1088,-66.6978
5.32,62.9212,55.3328,271.764,50.6769,14.9404,33.7897,-65.8821
5.34,63.3457,54.403,272.786,51.1037,21.344,320.184,-65.0336
5.36,63.7868,53.4739,273.815,51.4239,16.0084,-266.783,-64.1609
5.38,64.2449,52.5461,274.85,51.7388,15.7446,-13.1909,-63.2644
5.4,64.7205,51.6203,275.89,52.0415,15.1371,-30.3712,-62.3444
5.42,65.214,50.6969,276.937,52.3498,15.4116,13.7234,-61.4006
5.44,65.7269,49.7746,277.993,52.764,20.7116,264.998,-60.4256
5.46,66.2587,48.8559,279.054,53.0772,15.6612,-252.519,-59.4267
5.48,66.8098,47.9415,280.122,53.3826,15.2661,-19.7527,-58.4043
5.5,67.3805,47.0321,281.195,53.6808,14.9114,-17.737,-57.359
5.52,67.9711,46.1284,282.275,53.9783,14.877,-1.71708,-56.2911
5.54,68.5829,45.2299,283.362,54.35,18.5858,185.438,-55.1945
5.56,69.2152,44.3388,284.455,54.6341,14.2014,-219.221,-54.0766
5.58,69.868,43.4561,285.553,54.8947,13.0332,-58.4093,-52.9387
5.6,70.5414,42.5826,286.655,55.143,12.4142,-30.9504,-51.7818
5.62,71.2354,41.7196,287.763,55.3756,11.6301,-39.2032,-50.607
5.64,71.9508,40.8666,288.876,55.6601,14.222,129.594,-49.4108
5.66,72.6864,40.0261,289.993,55.8466,9.3277,-244.716,-48.2
5.68,73.4419,39.1989,291.113,56.0149,8.41245,-45.7625,-46.9765
5.7,74.217,38.386,292.237,56.1588,7.19929,-60.6578,-45.7419
5.72,75.0113,37.5883,293.362,56.2873,6.42479,-38.7249,-44.4977
5.74,75.8245,36.8065,294.49,56.4035,5.80932,-30.7739,-43.2444
5.76,76.6555,36.0419,295.62,56.4631,2.98014,-141.459,-41.9867
5.78,77.5036,35.2953,296.75,56.4949,1.58887,-69.5631,-40.7266
5.8,78.368,34.5676,297.879,56.4937,-0.0623629,-82.5619,-39.4662
5.82,79.2479,33.8592,299.009,56.4838,-0.493787,-21.5712,-38.2071
5.84,80.142,33.1713,300.137,56.405,-3.94043,-172.332,-36.9536
5.86,81.0494,32.504,301.264,56.3151,-4.49274,-27.6157,-35.7071
5.88,81.9691,31.8579,302.388,56.2001,-5.75015,-62.8702,-34.4695
5.9,82.9003,31.2333,303.509,56.0633,-6.84147,-54.5663,-33.2423
5.92,83.8418,30.6305,304.627,55.8993,-8.19885,-67.8689,-32.0274
5.94,84.7917,30.0501,305.74,55.6582,-12.0534,-192.727,-30.8313
5.96,85.7495,29.4917,306.849,55.4325,-11.2885,38.2442,-29.6522
5.98,86.7145,28.9554,307.953,55.2021,-11.5201,-11.5777,-28.4909
6,87.6857,28.4409,309.052,54.9511,-12.5483,-51.4103,-27.3486
6.02,88.662,27.948,310.145,54.6875,-13.1812,-31.6474,-26.2263
6.04,89.6408,27.4774,311.231,54.3023,-19.2574,-303.81,-25.1336
6.06,90.6228,27.028,312.311,53.9941,-15.4106,192.34,-24.0647
6.08,91.607,26.5992,313.385,53.6801,-15.7029,-14.6148,-23.0195
6.1,92.5931,26.1908,314.452,53.3662,-15.6914,0.575711,-21.9983
6.12,93.5803,25.802,315.513,53.0491,-15.8552,-8.18861,-21.0015
6.14,94.566,25.4333,316.566,52.6218,-21.3677,-275.629,-20.0373
6.16,95.551,25.0832,317.611,52.2685,-17.6631,185.229,-19.0988
6.18,96.5356,24.7512,318.65,51.9514,-15.8567,90.3234,-18.1854
6.2,97.5191,24.4368,319.683,51.6272,-16.2075,-17.5425,-17.2971
6.22,98.5014,24.1393,320.709,51.3184,-15.4395,38.4031,-16.4337
6.24,99.4794,23.8586,321.727,50.8759,-22.1265,-334.352,-15.603
6.26,100.455,23.5937,322.737,50.5452,-16.5362,279.516,-14.7972
6.28,101.428,23.3439,323.742,50.2251,-16.0056,26.5298,-14.0165
6.3,102.397,23.1088,324.739,49.8585,-18.3312,-116.282,-13.2616
