"time","x","y","position","velocity","acceleration","jerk","heading"
0,11,115,0,0,0,0,0
0.02,11.1093,115,0.109279,5.46397,273.199,13659.9,0.000842471
0.04,11.2187,115,0.218659,5.46897,0.250001,-13647.4,0.00168494
0.06,11.3279,115,0.327938,5.46397,-0.250001,-25.0001,0.00252741
0.08,11.4373,115,0.437318,5.46897,0.25,25,0.00336988
0.1,11.5466,115,0.546597,5.46397,-0.25,-25,0.00421235
0.12,11.656,115,0.655977,5.46897,0.249993,24.9997,0.00505483
0.14,11.7653,115,0.765256,5.46397,-0.249993,-24.9993,0.0058973
0.16,11.8746,115,0.874636,5.46897,0.25,24.9997,0.00673977
0.18,11.9839,115,0.983915,5.46397,-0.25,-25,0.00758224
0.2,12.2277,115,1.22771,12.1897,336.288,16826.9,0.0102766
0.22,12.4914,115,1.49143,13.1861,49.8209,-14323.4,0.0132446
0.24,12.7552,115,1.75516,13.1861,2.33299e-08,-2491.05,0.0162126
0.26,13.0259,115,2.02586,13.5354,17.4607,873.036,0.0196226
0.28,13.3685,115,2.3685,17.1319,179.827,8118.29,0.0274993
0.3,13.7111,115.001,2.71114,17.132,0.00364025,-8991.15,0.035376
0.32,14.0656,115.001,3.06557,17.7213,29.4655,1473.09,0.0440638
0.34,14.4712,115.001,3.47118,20.2806,127.967,4925.05,0.0562405
0.36,14.8769,115.001,3.87689,20.2856,0.250002,-6385.83,0.0684172
0.38,15.3225,115.002,4.32247,22.2789,99.6646,4970.73,0.0845484
0.4,15.7819,115.003,4.78189,22.971,34.603,-3253.08,0.10205
0.42,16.2692,115.004,5.26921,24.3663,69.7664,1758.17,0.123728
0.44,16.7761,115.005,5.77607,25.3429,48.8316,-1046.74,0.148337
0.46,17.3108,115.006,6.31076,26.7345,69.5789,1037.37,0.175881
0.48,17.8613,115.008,6.86132,27.528,39.6728,-1495.31,0.205081
0.5,18.4447,115.011,7.44471,29.1696,82.0803,2120.37,0.242959
0.52,19.0408,115.013,8.04087,29.8078,31.9139,-2508.32,0.283244
0.54,19.6677,115.017,8.66772,31.3428,76.7474,2241.67,0.327388
0.56,20.3154,115.021,9.3154,32.3839,52.0569,-1234.53,0.377937
0.58,20.9805,115.025,9.98059,33.2592,43.764,-414.643,0.433429
0.6,21.6741,115.03,10.6742,34.6814,71.1102,1367.31,0.494916
0.62,22.3899,115.037,11.3901,35.7919,55.5244,-779.294,0.56289
0.64,23.1252,115.045,12.1254,36.7653,48.6721,-342.614,0.637129
0.66,23.881,115.054,12.8812,37.7911,51.289,130.848,0.718221
0.68,24.6629,115.065,13.6632,39.0985,65.3675,703.925,0.805715
0.7,25.4664,115.076,14.4667,40.1798,54.0672,-565.019,0.90461
0.72,26.2912,115.09,15.2916,41.2449,53.2527,-40.722,1.00972
0.74,27.1369,115.105,16.1375,42.2944,52.4768,-38.7966,1.12377
0.76,28.0036,115.123,17.0044,43.3436,52.4605,-0.81576,1.24802
0.78,28.892,115.144,17.8931,44.4333,54.4862,101.286,1.38084
0.8,29.8016,115.167,18.803,45.4943,53.0486,-71.8805,1.52453
0.82,30.7324,115.193,19.7341,46.5549,53.0322,-0.821559,1.67952
0.84,31.6847,115.222,20.6868,47.6376,54.1306,54.9233,1.84427
0.86,32.6571,115.255,21.6597,48.647,50.4728,-182.89,2.02428
0.88,33.6509,115.292,22.6543,49.7253,53.9118,171.947,2.21421
0.9,34.6646,115.333,23.6688,50.7255,50.0138,-194.898,2.41954
0.92,35.6987,115.378,24.7039,51.7576,51.6015,79.3857,2.63728
0.94,36.7525,115.428,25.7589,52.7496,49.6008,-100.034,2.87016
0.96,37.8262,115.485,26.8341,53.7616,50.5992,49.9161,3.11672
0.98,38.9185,115.547,27.9282,54.7009,46.9658,-181.669,3.38126
1,40.03,115.615,29.0418,55.6807,48.9899,101.206,3.66023
1.02,41.1501,115.689,30.1643,56.125,22.217,-1338.64,3.95627
1.04,42.2669,115.77,31.284,55.9847,-7.01433,-1461.57,4.26296
1.06,43.3801,115.856,32.4005,55.828,-7.83451,-41.009,4.58171
1.08,44.4899,115.948,33.5141,55.6805,-7.37635,22.9077,4.91166
1.1,45.5958,116.046,34.6244,55.5127,-8.39034,-50.6994,5.25443
1.12,46.6977,116.151,35.7313,55.3468,-8.29338,4.84786,5.61001
1.14,47.796,116.262,36.8352,55.1942,-7.63332,33.0033,5.97721
1.16,48.8901,116.38,37.9355,55.0158,-8.91739,-64.2034,6.35739
1.18,49.9802,116.505,39.0328,54.8645,-7.56672,67.5332,6.74989
1.2,51.0661,116.637,40.1267,54.6951,-8.47096,-45.2119,7.15513
1.22,52.1477,116.777,41.2174,54.5335,-8.08045,19.5255,7.57283
1.24,53.2242,116.925,42.304,54.3293,-10.2054,-106.249,8.00612
1.26,54.2967,117.079,43.3876,54.179,-7.5177,134.386,8.45061
1.28,55.3643,117.242,44.4674,53.9937,-9.26599,-87.4147,8.90957
1.3,56.4278,117.414,45.5447,53.8652,-6.42524,142.038,9.37823
1.32,57.4845,117.593,46.6166,53.5928,-13.6204,-359.76,9.86791
1.34,58.5372,117.78,47.6857,53.4551,-6.88542,336.751,10.3676
1.36,59.584,117.976,48.7508,53.2551,-10.0001,-155.736,10.8826
1.38,60.6259,118.182,49.8127,53.097,-7.90053,104.981,11.4101
1.4,61.6618,118.396,50.8705,52.8886,-10.4205,-126,11.9536
1.42,62.6915,118.619,51.924,52.6773,-10.5641,-7.18048,12.5126
1.44,63.7155,118.852,52.9742,52.5086,-8.43692,106.361,13.0851
1.46,64.7328,119.094,54.0199,52.2853,-11.1629,-136.3,13.675
1.48,65.7444,119.345,55.0622,52.1138,-8.57897,129.197,14.2768
1.5,66.7485,119.607,56.1,51.8892,-11.2274,-132.421,14.8971
1.52,67.7463,119.877,57.1337,51.6853,-10.1965,51.5444,15.5316
1.54,68.7366,120.159,58.1632,51.4757,-10.4795,-14.1519,16.1828
1.56,69.7197,120.45,59.1887,51.2728,-10.1429,16.832,16.8494
1.58,70.6957,120.752,60.2104,51.0846,-9.41153,36.5685,17.5309
1.6,71.6637,121.064,61.2273,50.8477,-11.848,-121.823,18.2298
1.62,72.6239,121.388,62.2405,50.6615,-9.30842,126.978,18.9438
1.64,73.5756,121.72,63.2487,50.4085,-12.6472,-166.936,19.6759
1.66,74.5192,122.065,64.2534,50.2359,-8.63088,200.814,20.4227
1.68,75.4543,122.42,65.2537,50.0124,-11.1738,-127.144,21.1852
1.7,76.3805,122.786,66.2495,49.7925,-10.9966,8.85984,21.9649
1.72,77.2979,123.163,67.2413,49.5864,-10.3075,34.4551,22.7598
1.74,78.2055,123.551,68.2285,49.3623,-11.2012,-44.6863,23.5722
1.76,79.104,123.951,69.212,49.1744,-9.39773,90.173,24.3996
1.78,79.9933,124.363,70.1919,48.994,-9.02141,18.8157,25.241
1.8,80.8723,124.784,71.1667,48.7422,-12.589,-178.381,26.0998
1.82,81.7413,125.219,72.1385,48.5905,-7.58457,250.224,26.973
1.84,82.6003,125.664,73.1059,48.3672,-11.1632,-178.93,27.861
1.86,83.4484,126.121,74.0692,48.168,-9.96335,59.9913,28.7645
1.88,84.2868,126.59,75.0299,48.0342,-6.68745,163.795,29.679
1.9,85.114,127.07,75.9861,47.812,-11.1091,-221.081,30.6092
1.92,85.9301,127.562,76.9394,47.6603,-7.5883,176.038,31.5528
1.94,86.7357,128.066,77.8893,47.4974,-8.14265,-27.7175,32.5073
1.96,87.5298,128.582,78.8364,47.3553,-7.10409,51.9282,33.4745
1.98,88.3129,129.109,79.7804,47.1987,-7.83239,-36.4152,34.4517
2,89.085,129.648,80.7221,47.0845,-5.70752,106.244,35.4378
2.02,89.8449,130.199,81.6604,46.918,-8.32447,-130.848,36.4366
2.04,90.5936,130.763,82.5977,46.8623,-2.78689,276.879,37.4421
2.06,91.3305,131.336,83.5317,46.7014,-8.04336,-262.824,38.455
2.08,92.0559,131.924,84.4649,46.6578,-2.18145,293.096,39.4751
2.1,92.7703,132.522,85.3969,46.6005,-2.86633,-34.2442,40.5001
2.12,93.4718,133.133,86.3272,46.5156,-4.24595,-68.9811,41.5302
2.14,94.1617,133.755,87.2559,46.4365,-3.95056,14.7695,42.5643
2.16,94.8406,134.389,88.1853,46.4682,1.58274,276.665,43.6005
2.18,95.5066,135.035,89.113,46.3864,-4.08896,-283.585,44.6382
2.2,96.1609,135.694,90.0412,46.4098,1.16673,262.785,45.6763
2.22,96.8039,136.364,90.9698,46.4314,1.08309,-4.18227,46.7137
2.24,97.4348,137.046,91.8989,46.4509,0.976142,-5.34737,47.7494
2.26,98.0539,137.74,92.8291,46.5114,3.02515,102.451,48.7818
2.28,98.6602,138.445,93.7587,46.4835,-1.39503,-221.009,49.8109
2.3,99.255,139.162,94.6908,46.6019,5.91751,365.627,50.8353
2.32,99.8387,139.891,95.6247,46.6974,4.77748,-57.0011,51.8523
2.34,100.41,140.632,96.5599,46.7579,3.02216,-87.766,52.8636
2.36,100.969,141.384,97.4973,46.8701,5.61251,129.517,53.8667
2.38,101.517,142.148,98.4368,46.9739,5.18876,-21.1876,54.8606
2.4,102.052,142.923,99.3792,47.1199,7.29736,105.43,55.8466
2.42,102.576,143.709,100.324,47.2202,5.01493,-114.121,56.8201
2.44,103.088,144.507,101.272,47.4038,9.17966,208.237,57.7824
2.46,103.588,145.316,102.223,47.5721,8.41723,-38.1219,58.7348
2.48,104.077,146.136,103.177,47.7156,7.17581,-62.0706,59.6732
2.5,104.553,146.966,104.134,47.836,6.02014,-57.7839,60.5993
2.52,105.018,147.807,105.095,48.0516,10.7773,237.86,61.5122
2.54,105.472,148.659,106.061,48.3029,12.567,89.4825,62.4085
2.56,105.914,149.521,107.029,48.4021,4.96101,-380.299,63.2926
2.58,106.345,150.392,108.002,48.6142,10.6043,282.164,64.162
2.6,106.764,151.275,108.978,48.8376,11.1692,28.2468,65.0152
2.62,107.17,152.167,109.959,49.0339,9.81589,-67.6672,65.8537
2.64,107.567,153.068,110.943,49.221,9.35423,-23.0833,66.6754
2.66,107.953,153.98,111.933,49.494,13.6511,214.842,67.4816
2.68,108.326,154.899,112.925,49.5827,4.43571,-460.768,68.2738
2.7,108.689,155.828,113.923,49.8923,15.4772,552.076,69.0474
2.72,109.041,156.766,114.925,50.1017,10.4731,-250.208,69.8059
2.74,109.381,157.711,115.929,50.232,6.51228,-198.04,70.5477
2.76,109.712,158.666,116.94,50.5157,14.1835,383.562,71.2729
2.78,110.031,159.628,117.954,50.6921,8.82355,-267.998,71.9843
2.8,110.34,160.599,118.973,50.957,13.243,220.972,72.6771
2.82,110.639,161.577,119.994,51.087,6.49834,-337.232,73.355
2.84,110.927,162.563,121.022,51.3629,13.7977,364.966,74.0159
2.86,111.205,163.556,122.053,51.5739,10.5482,-162.476,74.6617
2.88,111.473,164.555,123.088,51.7442,8.5185,-101.483,75.2924
2.9,111.732,165.562,124.127,51.9528,10.4272,95.4364,75.9066
2.92,111.981,166.574,125.17,52.1243,8.57809,-92.4571,76.5067
2.94,112.22,167.595,126.218,52.4171,14.6364,302.916,77.0886
2.96,112.45,168.62,127.269,52.5337,5.83302,-440.169,77.6588
2.98,112.67,169.651,128.323,52.739,10.2622,221.461,78.2118
3,112.881,170.689,129.382,52.9348,9.78971,-23.6266,78.7517
3.02,113.084,171.732,130.445,53.1409,10.3046,25.7465,79.2759
3.04,113.278,172.781,131.512,53.3343,9.67344,-31.5598,79.785
3.06,113.462,173.835,132.582,53.5029,8.4286,-62.2418,80.2813
3.08,113.64,174.895,133.656,53.7206,10.884,122.769,80.7627
3.1,113.807,175.958,134.732,53.8152,4.73221,-307.588,81.2339
3.12,113.969,177.028,135.815,54.1136,14.916,509.19,81.6852
3.14,114.12,178.102,136.899,54.2131,4.97759,-496.921,82.1266
3.16,114.266,179.18,137.987,54.3964,9.16727,209.484,82.5536
3.18,114.403,180.262,139.077,54.5225,6.30365,-143.181,82.9703
3.2,114.533,181.35,140.173,54.7901,13.377,353.668,83.3704
3.22,114.656,182.441,141.271,54.8847,4.73354,-432.174,83.7593
3.24,114.773,183.537,142.373,55.1202,11.7722,351.932,84.1349
3.26,114.882,184.636,143.478,55.2232,5.14999,-331.109,84.4995
3.28,114.985,185.738,144.585,55.3681,7.24552,104.777,84.8501
3.3,115.081,186.846,145.697,55.5738,10.2841,151.931,85.1902
3.32,115.171,187.957,146.811,55.7277,7.69758,-129.328,85.5163
3.34,115.256,189.071,147.929,55.8994,8.58242,44.2416,85.8313
3.36,115.334,190.189,149.05,56.0309,6.57811,-100.215,86.1343
3.38,115.406,191.303,150.166,55.8257,-10.2604,-841.924,86.4245
3.4,115.472,192.403,151.268,55.0718,-37.6963,-1371.8,86.6982
3.42,115.532,193.482,152.348,54.0317,-52.0043,-715.399,86.9547
3.44,115.586,194.541,153.408,53.0059,-51.2913,35.6528,87.1966
3.46,115.635,195.58,154.449,52.0071,-49.9379,67.6703,87.4223
3.48,115.679,196.599,155.469,51.0123,-49.7397,9.90837,87.6352
3.5,115.718,197.598,156.469,49.9982,-50.7088,-48.4548,87.8332
3.52,115.753,198.576,157.448,48.9447,-52.6752,-98.3206,88.0195
3.54,115.785,199.534,158.406,47.9103,-51.7169,47.9128,88.1928
3.56,115.813,200.472,159.344,46.8956,-50.7338,49.1577,88.3552
3.58,115.838,201.387,160.26,45.7937,-55.0957,-218.093,88.506
3.6,115.86,202.283,161.155,44.7881,-50.2794,240.811,88.6455
3.62,115.88,203.156,162.029,43.6987,-54.4737,-209.711,88.7764
3.64,115.898,204.01,162.883,42.6936,-50.2536,211.002,88.896
3.66,115.912,204.842,163.715,41.5865,-55.3531,-254.973,89.0083
3.68,115.926,205.649,164.522,40.3694,-60.857,-275.197,89.1104
3.7,115.937,206.434,165.308,39.2845,-54.2465,330.526,89.2036
3.72,115.947,207.199,166.072,38.213,-53.5709,33.7782,89.2907
3.74,115.956,207.944,166.817,37.2489,-48.207,268.199,89.3712
3.76,115.964,208.667,167.541,36.1675,-54.0684,-293.073,89.4426
3.78,115.97,209.362,168.235,34.7347,-71.6412,-878.64,89.5088
3.8,115.975,210.037,168.911,33.7685,-48.3093,1166.6,89.5686
3.82,115.979,210.696,169.57,32.9411,-41.3702,346.955,89.6228
3.84,115.983,211.322,170.196,31.321,-81.006,-1981.79,89.6709
3.86,115.987,211.93,170.803,30.3721,-47.4464,1677.98,89.7151
3.88,115.989,212.519,171.393,29.4779,-44.7096,136.84,89.755
3.9,115.992,213.076,171.95,27.8606,-80.8651,-1807.77,89.7886
3.92,115.993,213.625,172.499,27.4299,-21.5359,2966.46,89.8207
3.94,115.995,214.131,173.005,25.2994,-106.524,-4249.39,89.8475
3.96,115.996,214.633,173.507,25.1071,-9.6146,4845.45,89.8737
3.98,115.997,215.092,173.966,22.9579,-107.46,-4892.28,89.8922
4,115.998,215.551,174.425,22.9592,0.0654509,5376.28,89.9106
4.02,115.998,215.96,174.834,20.4523,-125.343,-6270.41,89.9257
4.04,115.999,216.366,175.239,20.2563,-9.8006,5777.11,89.9405
4.06,115.999,216.741,175.614,18.7495,-75.3432,-3277.13,89.952
4.08,115.999,217.083,175.957,17.1466,-80.1438,-240.03,89.9599
4.1,116,217.426,176.3,17.1467,0.00363502,4007.37,89.9678
4.12,116,217.723,176.597,14.8215,-116.26,-5813.19,89.9738
4.14,116,217.986,176.859,13.1385,-84.1492,1605.55,89.9785
4.16,116,218.249,177.123,13.1872,2.43455,4329.19,89.9833
4.18,116,218.512,177.386,13.1385,-2.43455,-243.455,89.988
4.2,116,218.654,177.528,7.07906,-302.971,-15026.8,89.9896
4.22,116,218.762,177.636,5.43822,-82.0419,11046.5,89.9905
4.24,116,218.872,177.746,5.48953,2.56545,4230.37,89.9913
4.26,116,218.981,177.855,5.43953,-2.5,-253.272,89.9921
4.28,116,219.091,177.965,5.48822,2.43455,246.728,89.993
4.3,116,219.2,178.073,5.43953,-2.43455,-243.455,89.9938
4.32,116,219.309,178.183,5.48822,2.43455,243.455,89.9947
4.34,116,219.418,178.292,5.43953,-2.43455,-243.455,89.9955
4.36,116,219.528,178.402,5.48822,2.43455,243.455,89.9964
