"time","x","y","position","velocity","acceleration","jerk","heading"
0,0,286,0,0,0,0,0
0.02,0.00159346,286,0.00159346,0.079673,3.98365,199.182,-2.67677e-05
0.04,0.0127477,286,0.0127477,0.557711,23.9019,995.912,-0.000214142
0.06,0.0430234,286,0.0430234,1.51379,47.8038,1195.09,-0.000722729
0.08,0.101981,286,0.101981,2.9479,71.7057,1195.09,-0.00171314
0.1,0.199182,286,0.199182,4.86005,95.6076,1195.09,-0.00334597
0.12,0.342594,286,0.342594,7.17057,115.526,995.912,-0.00575507
0.14,0.533809,286,0.533809,9.56076,119.509,199.183,-0.0089672
0.16,0.772828,286,0.772828,11.9509,119.509,-0.00122086,-0.0129824
0.18,1.05951,286,1.05951,14.334,119.154,-17.7527,-0.0183819
0.2,1.39339,286,1.39339,16.694,118,-57.7084,-0.0270551
0.22,1.77497,286,1.77497,19.0789,119.243,62.1433,-0.0369674
0.24,2.20299,285.999,2.20299,21.4012,116.114,-156.471,-0.0532465
0.26,2.67718,285.999,2.67718,23.7094,115.412,-35.094,-0.0770319
0.28,3.19781,285.998,3.19781,26.0316,116.111,34.9782,-0.107187
0.3,3.76433,285.997,3.76433,28.326,114.716,-69.7724,-0.145992
0.32,4.37658,285.995,4.37658,30.6126,114.334,-19.0962,-0.194082
0.34,5.03448,285.993,5.03449,32.8954,114.139,-9.7724,-0.25148
0.36,5.73182,285.989,5.73184,34.8674,98.6007,-776.891,-0.328923
0.38,6.46217,285.984,6.46221,36.5184,82.5471,-802.681,-0.415274
0.4,7.21467,285.979,7.21473,37.6262,55.394,-1357.65,-0.515699
0.42,7.97924,285.971,7.97934,38.2302,30.1983,-1259.79,-0.632199
0.44,8.74788,285.962,8.74802,38.4344,10.212,-999.315,-0.75838
0.46,9.51367,285.951,9.51391,38.2941,-7.01661,-861.431,-0.89805
0.48,10.2762,285.938,10.2765,38.1305,-8.17818,-58.0786,-1.05109
0.5,11.0363,285.923,11.0368,38.0137,-5.84395,116.711,-1.21351
0.52,11.7943,285.906,11.795,37.909,-5.23271,30.5624,-1.38467
0.54,12.5472,285.886,12.5482,37.6594,-12.4804,-362.385,-1.57656
0.56,13.2979,285.865,13.2991,37.5487,-5.53633,347.204,-1.77692
0.58,14.0456,285.84,14.0473,37.4061,-7.13123,-79.7451,-1.98933
0.6,14.79,285.813,14.7921,37.2435,-8.12875,-49.8762,-2.21506
0.62,15.5312,285.783,15.5339,37.0908,-7.63185,24.845,-2.4531
0.64,16.2704,285.75,16.2739,36.9973,-4.67887,147.649,-2.69892
0.66,17.0034,285.714,17.0078,36.6965,-15.0407,-518.091,-2.96912
0.68,17.7339,285.674,17.7394,36.5803,-5.80678,461.696,-3.24907
0.7,18.4616,285.631,18.4683,36.4454,-6.74329,-46.8254,-3.53994
0.72,19.1857,285.585,19.1939,36.279,-8.32256,-78.9637,-3.84462
0.74,19.9048,285.534,19.9148,36.0434,-11.7805,-172.895,-4.16832
0.76,20.6211,285.48,20.6331,35.9161,-6.36486,270.78,-4.50281
0.78,21.3326,285.422,21.3469,35.691,-11.2529,-244.404,-4.85528
0.8,22.0397,285.359,22.0569,35.4993,-9.58671,83.3119,-5.2239
0.82,22.7434,285.293,22.7637,35.3392,-8.0063,79.0203,-5.60549
0.84,23.4438,285.222,23.4677,35.1999,-6.9637,52.1301,-5.99843
0.86,24.1363,285.147,24.1642,34.8265,-18.6717,-585.398,-6.42163
0.88,24.825,285.066,24.8576,34.6708,-7.78342,544.413,-6.85793
0.9,25.5099,284.982,25.5477,34.5058,-8.24748,-23.2028,-7.30733
0.92,26.1901,284.892,26.2339,34.3081,-9.88549,-81.9005,-7.7733
0.94,26.863,284.797,26.9133,33.9692,-16.9479,-353.121,-8.26668
0.96,27.531,284.697,27.5888,33.7759,-9.66608,364.091,-8.77654
0.98,28.194,284.592,28.2601,33.5649,-10.5461,-44.0004,-9.30296
1,28.8508,284.481,28.9261,33.2997,-13.2602,-135.704,-9.85152
1.02,29.5006,284.365,29.5862,33.007,-14.6351,-68.7461,-10.424
1.04,30.145,284.243,30.2422,32.7966,-10.5195,205.78,-11.014
1.06,30.7829,284.116,30.8925,32.5173,-13.9689,-172.468,-11.6255
1.08,31.4125,283.983,31.5362,32.1828,-16.7242,-137.77,-12.2658
1.1,32.035,283.844,32.1739,31.8878,-14.7467,98.8776,-12.9296
1.12,32.6515,283.698,32.8074,31.6726,-10.7632,199.177,-13.6118
1.14,33.2612,283.547,33.4356,31.4115,-13.0539,-114.539,-14.3149
1.16,33.8602,283.391,34.0547,30.9531,-22.9192,-493.265,-15.0547
1.18,34.4514,283.227,34.668,30.6649,-14.4128,425.323,-15.8191
1.2,35.035,283.058,35.2756,30.3831,-14.0864,16.3166,-16.6059
1.22,35.6111,282.882,35.8781,30.1241,-12.9499,56.8266,-17.4146
1.24,36.1784,282.699,36.4741,29.797,-16.3586,-170.432,-18.2495
1.26,36.7336,282.512,37.06,29.2974,-24.9804,-431.092,-19.1254
1.28,37.2801,282.317,37.6401,29.0033,-14.703,513.872,-20.0256
1.3,37.8183,282.116,38.2145,28.7234,-13.9969,35.3016,-20.949
1.32,38.3476,281.909,38.783,28.4252,-14.909,-45.6033,-21.8964
1.34,38.8669,281.696,39.3444,28.07,-17.7581,-142.457,-22.8718
1.36,39.3734,281.476,39.8965,27.6008,-23.4625,-285.219,-23.8879
1.38,39.8705,281.251,40.442,27.2781,-16.1349,366.38,-24.9286
1.4,40.358,281.019,40.982,27.0002,-13.8935,112.072,-25.9928
1.42,40.8361,280.781,41.5162,26.7082,-14.5991,-35.2795,-27.0803
1.44,41.3038,280.536,42.0442,26.3987,-15.4773,-43.9137,-28.1937
1.46,41.7597,280.286,42.5642,26.0019,-19.8393,-218.097,-29.3396
1.48,42.2053,280.029,43.0783,25.7037,-14.9091,246.51,-30.5098
1.5,42.6411,279.767,43.5871,25.4412,-13.1256,89.1751,-31.7013
1.52,43.0673,279.498,44.0911,25.198,-12.1614,48.2115,-32.9118
1.54,43.4836,279.222,44.5905,24.9731,-11.2443,45.8532,-34.1421
1.56,43.8899,278.94,45.0849,24.7203,-12.6412,-69.8464,-35.3924
1.58,44.2868,278.651,45.576,24.5538,-8.32487,215.817,-36.6582
1.6,44.6745,278.357,46.0628,24.3403,-10.6726,-117.387,-37.9381
1.62,45.0531,278.054,46.5472,24.2207,-5.9781,234.725,-39.23
1.64,45.4231,277.745,47.0294,24.1082,-5.6286,17.4753,-40.5309
1.66,45.7847,277.429,47.51,24.0317,-3.82363,90.2481,-41.8386
1.68,46.1385,277.105,47.9895,23.9728,-2.9426,44.0515,-43.1494
1.7,46.4843,276.773,48.4689,23.9736,0.0357847,148.919,-44.4617
1.72,46.8227,276.433,48.9485,23.9796,0.30079,13.2503,-45.7734
1.74,47.1538,276.085,49.4292,24.0339,2.71738,120.829,-47.0814
1.76,47.4784,275.727,49.9118,24.1293,4.77021,102.642,-48.3805
1.78,47.7962,275.361,50.3966,24.2386,5.46435,34.7071,-49.6704
1.8,48.1074,274.987,50.8835,24.3439,5.26408,-10.0134,-50.9497
1.82,48.412,274.603,51.3739,24.5229,8.94821,184.206,-52.2169
1.84,48.7104,274.208,51.8683,24.7201,9.86236,45.7079,-53.4687
1.86,49.0029,273.804,52.3672,24.9441,11.2,66.882,-54.7012
1.88,49.2898,273.39,52.8715,25.2133,13.4601,113.005,-55.9122
1.9,49.5707,272.965,53.3806,25.4576,12.2136,-62.3254,-57.1016
1.92,49.8457,272.53,53.8951,25.7223,13.2358,51.1087,-58.2698
1.94,50.1147,272.084,54.4156,26.028,15.2828,102.353,-59.4144
1.96,50.3783,271.629,54.9419,26.3144,14.3236,-47.9608,-60.5321
1.98,50.6356,271.162,55.4749,26.6503,16.7955,123.595,-61.6272
2,50.8871,270.686,56.0133,26.9184,13.4027,-169.639,-62.6963
2.02,51.1328,270.199,56.5588,27.2735,17.7556,217.641,-63.737
2.04,51.373,269.701,57.1121,27.6681,19.7287,98.6554,-64.7481
2.06,51.6074,269.193,57.6717,27.9788,15.5367,-209.598,-65.7301
2.08,51.8355,268.675,58.2374,28.2858,15.3479,-9.44055,-66.6885
2.1,52.0572,268.147,58.8098,28.6177,16.5974,62.4777,-67.6227
2.12,52.273,267.611,59.3877,28.8995,14.0872,-125.511,-68.5306
2.14,52.4835,267.063,59.9747,29.3487,22.4595,418.615,-69.4034
2.16,52.6879,266.506,60.5682,29.6732,16.2257,-311.689,-70.2487
2.18,52.886,265.941,61.167,29.942,13.4409,-139.242,-71.0722
2.2,53.0779,265.368,61.7706,30.1807,11.9378,-75.1561,-71.8737
2.22,53.2636,264.787,62.3807,30.5031,16.1177,208.995,-72.651
2.24,53.444,264.196,62.9988,30.9049,20.0921,198.72,-73.3948
2.26,53.6184,263.597,63.6227,31.1968,14.5924,-274.983,-74.1149
2.28,53.7866,262.991,64.2516,31.442,12.2621,-116.518,-74.8161
2.3,53.9489,262.378,64.8861,31.7241,14.1046,92.1266,-75.4961
2.32,54.1054,261.758,65.5249,31.9433,10.9586,-157.298,-76.1529
2.34,54.2563,261.13,66.1709,32.2988,17.7769,340.913,-76.7839
2.36,54.4015,260.496,66.8218,32.5434,12.2263,-277.532,-77.395
2.38,54.5409,259.856,67.4767,32.7482,10.2443,-99.0961,-77.99
2.4,54.6749,259.21,68.1362,32.9742,11.2966,52.6115,-78.5637
2.42,54.8036,258.557,68.8017,33.2766,15.122,191.274,-79.1145
2.44,54.9267,257.9,69.4706,33.4421,8.27551,-342.327,-79.6499
2.46,55.0446,257.237,70.1441,33.6747,11.6274,167.595,-80.1691
2.48,55.1573,256.568,70.8225,33.9211,12.3237,34.8133,-80.6672
2.5,55.265,255.894,71.505,34.1239,10.1373,-109.32,-81.1483
2.52,55.3677,255.216,72.1906,34.2821,7.91204,-111.262,-81.6164
2.54,55.4653,254.535,72.8784,34.387,5.24137,-133.534,-82.0721
2.56,55.5584,253.847,73.573,34.7322,17.264,601.131,-82.5042
2.58,55.6467,253.154,74.2709,34.8966,8.2207,-452.164,-82.9237
2.6,55.7304,252.46,74.9707,34.9899,4.66058,-178.006,-83.3327
2.62,55.8094,251.761,75.6737,35.1475,7.88382,161.162,-83.7302
2.64,55.8844,251.058,76.381,35.3642,10.8312,147.369,-84.1076
2.66,55.955,250.351,77.0915,35.5253,8.05494,-138.813,-84.4737
2.68,56.0213,249.641,77.8047,35.6597,6.72226,-66.6341,-84.8309
2.7,56.0836,248.927,78.5206,35.7977,6.89938,8.85591,-85.175
2.72,56.142,248.211,79.2396,35.9502,7.62522,36.2922,-85.505
2.74,56.1964,247.491,79.9612,36.0765,6.3149,-65.5165,-85.8273
2.76,56.247,246.769,80.6854,36.2129,6.81818,25.1641,-86.1371
2.78,56.2941,246.043,81.4123,36.3444,6.57916,-11.951,-86.435
2.8,56.3375,245.315,82.142,36.4839,6.97414,19.7494,-86.7245
2.82,56.3774,244.585,82.8733,36.5632,3.96424,-150.495,-87.0066
2.84,56.4139,243.851,83.6076,36.7167,7.6768,185.628,-87.2753
2.86,56.4473,243.116,84.344,36.8206,5.19239,-124.22,-87.5348
2.88,56.4772,242.379,85.0818,36.8908,3.51223,-84.0082,-87.7879
2.9,56.5042,241.638,85.8228,37.0491,7.91305,220.041,-88.0316
2.92,56.5281,240.896,86.5652,37.1181,3.4492,-223.192,-88.2651
2.94,56.5491,240.152,87.3096,37.2231,5.25004,90.0422,-88.4937
2.96,56.5673,239.405,88.0567,37.3558,6.63783,69.3891,-88.7111
2.98,56.5827,238.656,88.8055,37.4379,4.1022,-126.781,-88.9215
3,56.5955,237.9,89.5622,37.8366,19.9361,791.696,-89.1277
3.02,56.6059,237.127,90.3355,38.6638,41.3591,1071.15,-89.3315
3.04,56.6138,236.327,91.1351,39.9782,65.7189,1217.99,-89.5299
3.06,56.6191,235.492,91.9698,41.7367,87.9245,1110.28,-89.7316
3.08,56.6216,234.614,92.8487,43.9457,110.454,1126.48,-89.9325
3.1,56.6209,233.687,93.7752,46.3248,118.952,424.909,-90.1351
3.12,56.6168,232.713,94.7492,48.702,118.861,-4.55198,-90.3396
3.14,56.6089,231.69,95.7722,51.1496,122.379,175.887,-90.5403
3.16,56.5969,230.619,96.8428,53.5295,118.997,-169.087,-90.7428
3.18,56.5804,229.499,97.9635,56.0325,125.148,307.56,-90.9371
3.2,56.5592,228.33,99.1325,58.4508,120.914,-211.728,-91.1302
3.22,56.5331,227.113,100.35,60.8775,121.333,20.9719,-91.3174
3.24,56.5019,225.846,101.617,63.3707,124.661,166.369,-91.5015
3.26,56.4653,224.529,102.935,65.8712,125.028,18.3799,-91.6738
3.28,56.4232,223.162,104.303,68.3954,126.21,59.0763,-91.8406
3.3,56.3757,221.745,105.72,70.8594,123.196,-150.706,-91.9987
3.32,56.3225,220.278,107.188,73.3961,126.838,182.122,-92.1463
3.34,56.2637,218.761,108.706,75.9161,125.999,-41.9423,-92.2848
3.36,56.1994,217.194,110.275,78.4157,124.98,-50.978,-92.4118
3.38,56.1295,215.575,111.896,81.0498,131.705,336.284,-92.5245
3.4,56.0543,213.905,113.566,83.5458,124.8,-345.252,-92.626
3.42,55.974,212.185,115.289,86.1124,128.327,176.32,-92.7146
3.44,55.8887,210.413,117.063,88.7033,129.547,61.0301,-92.7883
3.46,55.7989,208.589,118.889,91.2978,129.727,8.98333,-92.8467
3.48,55.7048,206.714,120.767,93.8932,129.768,2.05495,-92.8897
3.5,55.607,204.787,122.695,96.4396,127.321,-122.353,-92.9171
3.52,55.5059,202.808,124.677,99.0937,132.705,269.215,-92.9282
3.54,55.402,200.778,126.71,101.652,127.928,-238.853,-92.9225
3.56,55.2959,198.695,128.796,104.271,130.911,149.139,-92.8991
3.58,55.1885,196.559,130.934,106.936,133.295,119.178,-92.858
3.6,55.0803,194.372,133.124,109.498,128.058,-261.841,-92.7995
3.62,54.9722,192.132,135.367,112.109,130.572,125.685,-92.7234
3.64,54.8649,189.839,137.662,114.784,133.728,157.795,-92.6285
3.66,54.7597,187.498,140.006,117.191,120.384,-667.187,-92.516
3.68,54.6577,185.117,142.389,119.125,96.7056,-1183.91,-92.3877
3.7,54.5601,182.707,144.801,120.603,73.8723,-1141.67,-92.244
3.72,54.4682,180.278,147.232,121.555,47.6072,-1313.25,-92.0869
3.74,54.3828,177.839,149.672,122.022,23.3718,-1211.77,-91.9192
3.76,54.3047,175.397,152.116,122.168,7.26317,-805.433,-91.7427
3.78,54.2342,172.953,154.56,122.236,3.40072,-193.122,-91.5597
3.8,54.1716,170.508,157.006,122.275,1.97396,-71.3383,-91.3726
3.82,54.1171,168.062,159.452,122.335,3.00394,51.4989,-91.1839
3.84,54.0705,165.617,161.898,122.266,-3.45224,-322.809,-90.9961
3.86,54.032,163.173,164.343,122.259,-0.348513,155.186,-90.8124
3.88,54.0012,160.729,166.786,122.167,-4.60313,-212.731,-90.6358
3.9,53.9777,158.289,169.227,122.034,-6.6754,-103.614,-90.4698
3.92,53.961,155.852,171.664,121.857,-8.81211,-106.836,-90.318
3.94,53.9506,153.419,174.097,121.637,-11.0193,-110.36,-90.1841
3.96,53.9452,150.992,176.524,121.365,-13.6018,-129.126,-90.0724
3.98,53.9442,148.57,178.946,121.08,-14.2382,-31.8173,-89.9758
4,53.9476,146.154,181.362,120.818,-13.0917,57.3235,-89.8679
4.02,53.9551,143.76,183.756,119.682,-56.8234,-2186.59,-89.7753
4.04,53.9661,141.397,186.118,118.134,-77.418,-1029.73,-89.6949
4.06,53.9799,139.076,188.44,116.087,-102.348,-1246.52,-89.6225
4.08,53.9963,136.8,190.716,113.781,-115.265,-645.816,-89.5547
4.1,54.0149,134.574,192.942,111.319,-123.127,-393.134,-89.488
4.12,54.0356,132.394,195.122,108.986,-116.652,323.767,-89.42
4.14,54.0585,130.262,197.255,106.642,-117.192,-26.9835,-89.3475
4.16,54.0836,128.177,199.34,104.259,-119.131,-96.9474,-89.2696
4.18,54.1111,126.136,201.38,102.014,-112.286,342.247,-89.1833
4.2,54.1412,124.143,203.373,99.6608,-117.634,-267.39,-89.0892
4.22,54.1738,122.196,205.321,97.3914,-113.471,208.115,-88.9846
4.24,54.2094,120.293,207.224,95.1629,-111.428,102.185,-88.8703
4.26,54.248,118.436,209.082,92.8603,-115.13,-185.112,-88.7442
4.28,54.2897,116.625,210.893,90.5889,-113.571,77.9568,-88.6079
4.3,54.3349,114.859,212.66,88.3364,-112.623,47.3778,-88.4599
4.32,54.3834,113.138,214.381,86.0553,-114.054,-71.536,-88.3026
4.34,54.4355,111.463,216.058,83.8274,-111.395,132.946,-88.1317
4.36,54.4911,109.833,217.688,81.5306,-114.842,-172.341,-87.9529
4.38,54.5504,108.248,219.274,79.2775,-112.656,109.288,-87.7627
4.4,54.6131,106.711,220.813,76.9431,-116.719,-203.137,-87.5637
4.42,54.6791,105.219,222.306,74.652,-114.554,108.262,-87.3565
4.44,54.7485,103.774,223.753,72.3668,-114.262,14.5813,-87.1407
4.46,54.8211,102.374,225.155,70.0635,-115.165,-45.144,-86.9178
4.48,54.8965,101.021,226.509,67.7436,-115.996,-41.5628,-86.6892
4.5,54.9747,99.7162,227.817,65.3782,-118.27,-113.687,-86.4546
4.52,55.0552,98.4577,229.078,63.0565,-116.081,109.443,-86.2161
4.54,55.1377,97.2468,230.292,60.6841,-118.624,-127.172,-85.9746
4.56,55.2221,96.0832,231.458,58.3329,-117.558,53.3103,-85.7292
4.58,55.3077,94.9678,232.577,55.9332,-119.985,-121.354,-85.4834
4.6,55.3942,93.9009,233.648,53.5225,-120.534,-27.4369,-85.2389
4.62,55.4812,92.8823,234.67,51.1131,-120.471,3.14525,-84.9951
4.64,55.5682,91.9119,235.644,48.7166,-119.822,32.4582,-84.7525
4.66,55.6553,90.9843,236.576,46.5819,-106.736,654.316,-84.5122
4.68,55.7431,90.0897,237.475,44.9447,-81.8628,1243.64,-84.2733
4.7,55.8323,89.2179,238.351,43.8204,-56.215,1282.39,-84.0324
4.72,55.924,88.3583,239.216,43.2233,-29.8539,1318.06,-83.7855
4.74,56.0191,87.5012,240.078,43.1161,-5.35903,1224.74,-83.5308
4.76,56.1184,86.6427,240.942,43.2117,4.78061,506.982,-83.2679
4.78,56.2219,85.7827,241.808,43.3101,4.91668,6.8035,-82.9971
4.8,56.3299,84.921,242.677,43.4232,5.65923,37.1274,-82.7169
4.82,56.4424,84.0574,243.548,43.5448,6.07513,20.7949,-82.4268
4.84,56.5598,83.1917,244.421,43.6801,6.76695,34.5914,-82.1254
4.86,56.6822,82.3241,245.297,43.8124,6.61436,-7.62976,-81.8135
4.88,56.8096,81.4549,246.176,43.922,5.47871,-56.7825,-81.4923
4.9,56.9424,80.5837,247.057,44.0643,7.11981,82.0552,-81.1598
4.92,57.0809,79.7106,247.941,44.2002,6.79341,-16.32,-80.8159
4.94,57.225,78.8356,248.828,44.3388,6.92785,6.72184,-80.4609
4.96,57.3752,77.9587,249.718,44.4869,7.4072,23.9677,-80.0936
4.98,57.5316,77.0795,250.611,44.6469,7.99698,29.489,-79.7131
5,57.6947,76.1982,251.507,44.8157,8.44253,22.2772,-79.3191
5.02,57.8645,75.3147,252.407,44.9788,8.15338,-14.4575,-78.9115
5.04,58.0412,74.4296,253.309,45.1301,7.56757,-29.2904,-78.4915
5.06,58.2251,73.5428,254.215,45.2829,7.63784,3.51379,-78.059
5.08,58.4166,72.6542,255.124,45.4524,8.4757,41.893,-77.6129
5.1,58.6163,71.7623,256.038,45.6972,12.239,188.166,-77.1467
5.12,58.8242,70.8682,256.956,45.8968,9.98318,-112.793,-76.664
5.14,59.0405,69.9725,257.877,46.0735,8.83426,-57.4456,-76.1666
5.16,59.2656,69.0751,258.802,46.2628,9.4614,31.3568,-75.6542
5.18,59.4998,68.1761,259.731,46.4468,9.20014,-13.063,-75.1262
5.2,59.7437,67.2748,260.665,46.6856,11.9435,137.17,-74.5793
5.22,59.9976,66.3716,261.603,46.9138,11.4062,-26.8648,-74.0131
5.24,60.2618,65.4663,262.546,47.1523,11.9292,26.1487,-73.4279
5.26,60.5368,64.5594,263.494,47.3834,11.5539,-18.7649,-72.8232
5.28,60.823,63.6509,264.447,47.6259,12.1239,28.5006,-72.1993
5.3,61.1209,62.7405,265.404,47.8931,13.3613,61.8687,-71.553
5.32,61.431,61.8283,266.368,48.172,13.9419,29.0319,-70.8844
5.34,61.7533,60.9154,267.336,48.4104,11.9214,-101.027,-70.1957
5.36,62.0886,60.0016,268.31,48.6678,12.87,47.429,-69.4865
5.38,62.4372,59.0874,269.288,48.9192,12.571,-14.9485,-68.7564
5.4,62.7998,58.1721,270.272,49.2263,15.3556,139.231,-68.0009
5.42,63.1772,57.256,271.263,49.5404,15.7021,17.323,-67.22
5.44,63.5693,56.34,272.26,49.8184,13.9007,-90.0699,-66.4165
5.46,63.9767,55.4245,273.262,50.1051,14.3374,21.8345,-65.5893
5.48,64.4002,54.5095,274.27,50.4082,15.1524,40.7514,-64.7373
5.5,64.8403,53.5948,275.285,50.7547,17.3266,108.707,-63.8571
5.52,65.2976,52.6812,276.307,51.0822,16.3753,-47.5652,-62.9499
5.54,65.7722,51.7699,277.334,51.3761,14.6963,-83.9463,-62.0189
5.56,66.2643,50.8615,278.367,51.6572,14.0543,-32.1016,-61.0642
5.58,66.7747,49.9563,279.406,51.9557,14.9258,43.5753,-60.0857
5.6,67.3042,49.0544,280.452,52.2937,16.8986,98.6396,-59.0794
5.62,67.8529,48.1563,281.505,52.6219,16.4105,-24.404,-58.0464
5.64,68.4209,47.2638,282.563,52.8964,13.7232,-134.366,-56.9907
5.66,69.0084,46.3775,283.626,53.1669,13.5242,-9.95132,-55.9127
5.68,69.6157,45.4981,284.695,53.4358,13.4461,-3.90205,-54.813
5.7,70.2436,44.6259,285.769,53.7357,14.9935,77.368,-53.6886
5.72,70.8919,43.7617,286.85,54.0148,13.9566,-51.8424,-52.5417
5.74,71.5602,42.9074,287.934,54.2346,10.9914,-148.262,-51.3765
5.76,72.2484,42.0637,289.023,54.4414,10.3373,-32.7037,-50.1942
5.78,72.9567,41.2315,290.116,54.6387,9.86633,-23.5503,-48.9959
5.8,73.6851,40.4113,291.213,54.8479,10.4619,29.7796,-47.7806
5.82,74.4332,39.6045,292.313,55.0125,8.22789,-111.702,-46.5516
5.84,75.2,38.8121,293.416,55.1363,6.191,-101.845,-45.3126
5.86,75.9854,38.0351,294.521,55.2376,5.06652,-56.2239,-44.0652
5.88,76.7888,37.2743,295.627,55.3219,4.2133,-42.661,-42.8112
5.9,77.6096,36.5306,296.735,55.3811,2.96174,-62.578,-41.5522
5.92,78.4468,35.8048,297.843,55.4019,1.0393,-96.122,-40.2915
5.94,79.2996,35.0977,298.951,55.3886,-0.665765,-85.2532,-39.0317
5.96,80.1672,34.41,300.058,55.3566,-1.60187,-46.8054,-37.7745
5.98,81.0489,33.7421,301.164,55.3033,-2.66202,-53.0072,-36.522
6,81.9432,33.0948,302.268,55.2003,-5.15159,-124.479,-35.2778
6.02,82.8491,32.4686,303.369,55.0641,-6.80898,-82.8697,-34.0445
6.04,83.7658,31.8634,304.467,54.9202,-7.19492,-19.297,-32.823
6.06,84.6925,31.2795,305.563,54.7661,-7.70562,-25.535,-31.6146
6.08,85.628,30.717,306.654,54.5809,-9.25852,-77.6451,-30.421
6.1,86.5708,30.1764,307.741,54.3404,-12.0268,-138.415,-29.2471
6.12,87.52,29.6576,308.823,54.086,-12.7193,-34.6218,-28.0942
6.14,88.4749,29.1599,309.9,53.8409,-12.2558,23.1713,-26.9611
6.16,89.4348,28.6834,310.971,53.5842,-12.8364,-29.0297,-25.8493
6.18,90.3987,28.2278,312.038,53.3078,-13.8187,-49.1142,-24.76
6.2,91.3648,27.7931,313.097,52.9682,-16.9811,-158.121,-23.6984
6.22,92.3325,27.3788,314.15,52.6334,-16.7368,12.2181,-22.6641
6.24,93.3021,26.9841,315.196,52.3407,-14.6382,104.929,-21.6541
6.26,94.2727,26.6086,316.237,52.0362,-15.2259,-29.3863,-20.6688
6.28,95.2439,26.2516,317.272,51.7354,-15.037,9.44754,-19.7083
6.3,96.2135,25.9131,318.299,51.3488,-19.3293,-214.618,-18.7776
