"time","x","y","position","velocity","acceleration","jerk","heading"
0,11,115,0,0,0,0,0
0.02,11.0016,115,0.00159678,0.0798389,3.99195,199.597,1.23051e-05
0.04,11.0128,115,0.0127742,0.558872,23.9517,997.987,9.84406e-05
0.06,11.0429,115,0.0429134,1.50696,47.4044,1172.63,0.000330699
0.08,11.0968,115,0.0968047,2.69456,59.3802,598.792,0.000745995
0.1,11.1746,115,0.174648,3.89215,59.8792,24.9496,0.00134587
0.12,11.2764,115,0.276442,5.08973,59.8792,0.000130905,0.00213032
0.14,11.4022,115,0.402189,6.28732,59.8792,0.000163638,0.00309934
0.16,11.5519,115,0.551887,7.4849,59.8792,-0.000327226,0.00425294
0.18,11.7255,115,0.725536,8.68248,59.8792,3.93573e-08,0.00559112
0.2,11.9231,115,0.923138,9.88007,59.8792,0.00032731,0.00711387
0.22,12.1446,115,1.14455,11.0709,59.5394,-16.9911,0.0093404
0.24,12.3898,115,1.38983,12.2639,59.6503,5.5472,0.0121012
0.26,12.659,115,1.65904,13.4603,59.8237,8.67112,0.0151313
0.28,12.9522,115,1.95217,14.6568,59.8237,6.15361e-07,0.0184307
0.3,13.2684,115,2.2684,15.8114,57.7302,-104.677,0.0251981
0.32,13.6084,115,2.60836,16.9977,59.3137,79.1747,0.0330141
0.34,13.9722,115.001,2.97217,18.1906,59.6444,16.537,0.0413786
0.36,14.3592,115.001,3.35916,19.3495,57.9456,-84.943,0.0528768
0.38,14.7699,115.001,3.76993,20.5386,59.4551,75.4746,0.0652076
0.4,15.204,115.002,4.20405,21.7059,58.3669,-54.4098,0.080038
0.42,15.6615,115.003,4.66149,22.872,58.3016,-3.2657,0.0974632
0.44,16.1422,115.003,5.14223,24.0369,58.2468,-2.73811,0.117563
0.46,16.6458,115.005,5.64583,25.1801,57.1619,-54.2423,0.142014
0.48,17.1729,115.006,6.17288,26.3525,58.6181,72.8063,0.168565
0.5,17.7232,115.008,6.72324,27.5181,58.2781,-16.9995,0.197757
0.52,18.296,115.01,7.29601,28.6388,56.0353,-112.138,0.233006
0.54,18.8916,115.013,7.89159,29.7787,56.996,48.0339,0.27286
0.56,19.5102,115.016,8.51022,30.9318,57.6568,33.0415,0.316293
0.58,20.1516,115.02,9.15164,32.0708,56.951,-35.2931,0.364404
0.6,20.8151,115.024,9.8152,33.1781,55.3605,-79.5226,0.41922
0.62,21.5013,115.029,10.5014,34.3109,56.641,64.0237,0.479603
0.64,22.2101,115.035,11.2102,35.44,56.4551,-9.29593,0.545399
0.66,22.9412,115.043,11.9414,36.5587,55.937,-25.9018,0.617471
0.68,23.6936,115.052,12.6938,37.6203,53.0769,-143.01,0.697866
0.7,24.4622,115.062,13.4625,38.4352,40.7468,-616.504,0.783273
0.72,25.237,115.072,14.2373,38.7411,15.2934,-1272.67,0.875919
0.74,26.0113,115.085,15.0117,38.7203,-1.03804,-816.57,0.973703
0.76,26.7849,115.098,15.7855,38.6872,-1.65492,-30.8442,1.07408
0.78,27.5562,115.114,16.5569,38.5725,-5.73449,-203.979,1.18298
0.8,28.3267,115.13,17.3275,38.5308,-2.08741,182.354,1.29553
0.82,29.0957,115.148,18.0968,38.4638,-3.34571,-62.9151,1.4126
0.84,29.8635,115.169,18.8649,38.4045,-2.96955,18.8079,1.53478
0.86,30.6299,115.19,19.6316,38.3344,-3.50104,-26.5741,1.66203
0.88,31.3954,115.213,20.3973,38.2878,-2.33144,58.4797,1.79268
0.9,32.1586,115.237,21.161,38.182,-5.28917,-147.887,1.93165
0.92,32.9209,115.264,21.9237,38.1365,-2.27368,150.775,2.07397
0.94,33.6819,115.293,22.6853,38.0807,-2.79129,-25.8807,2.22045
0.96,34.4414,115.323,23.4454,38.0021,-3.92959,-56.9148,2.37323
0.98,35.1995,115.355,24.2042,37.9414,-3.0346,44.7495,2.53058
1,35.9562,115.39,24.9617,37.8737,-3.3868,-17.61,2.69285
1.02,36.7114,115.426,25.7177,37.8017,-3.60033,-10.6767,2.8608
1.04,37.4652,115.465,26.4725,37.7416,-3.00236,29.8985,3.03314
1.06,38.2182,115.506,27.2267,37.7059,-1.7885,60.6933,3.20844
1.08,38.9685,115.55,27.9782,37.5773,-6.42827,-231.989,3.39361
1.1,39.7178,115.595,28.7289,37.5358,-2.0772,217.554,3.58164
1.12,40.4658,115.643,29.4785,37.4774,-2.91664,-41.9723,3.7747
1.14,41.2122,115.694,30.2265,37.403,-3.72164,-40.25,3.97319
1.16,41.957,115.747,30.9733,37.3397,-3.1659,27.7872,4.17655
1.18,42.7006,115.802,31.7189,37.2794,-3.01653,7.46847,4.38393
1.2,43.4419,115.861,32.4625,37.1778,-5.0762,-102.984,4.59985
1.22,44.1818,115.921,33.2049,37.1218,-2.80193,113.714,4.81952
1.24,44.9204,115.985,33.9462,37.0657,-2.80275,-0.0413378,5.04361
1.26,45.6571,116.051,34.6859,36.9851,-4.03246,-61.4855,5.27411
1.28,46.3919,116.121,35.424,36.9047,-4.01769,0.738615,5.51028
1.3,47.1255,116.194,36.1611,36.8563,-2.4215,79.8094,5.75086
1.32,47.8568,116.269,36.8964,36.7634,-4.64509,-111.18,5.99817
1.34,48.5864,116.347,37.6302,36.6873,-3.80487,42.0111,6.25097
1.36,49.3149,116.428,38.3632,36.6498,-1.87681,96.4031,6.50716
1.38,50.0406,116.512,39.0937,36.5293,-6.02216,-207.268,6.77195
1.4,50.7646,116.6,39.823,36.4627,-3.33266,134.475,7.04211
1.42,51.487,116.691,40.5511,36.4067,-2.79716,26.775,7.31652
1.44,52.2076,116.785,41.2778,36.3358,-3.54569,-37.4261,7.59678
1.46,52.9256,116.883,42.0025,36.2343,-5.07713,-76.572,7.88455
1.48,53.6422,116.984,42.7261,36.1778,-2.823,112.706,8.17631
1.5,54.3562,117.088,43.4477,36.079,-4.93954,-105.827,8.47568
1.52,55.0681,117.196,44.1678,36.0056,-3.66868,63.5431,8.78102
1.54,55.7782,117.308,44.8866,35.9395,-3.30684,18.0916,9.0911
1.56,56.4866,117.423,45.6044,35.8898,-2.48723,40.9806,9.40536
1.58,57.1915,117.542,46.3191,35.7389,-7.54372,-252.824,9.73101
1.6,57.8945,117.664,47.0327,35.6803,-2.92788,230.792,10.0607
1.62,58.5955,117.791,47.745,35.6137,-3.33042,-20.1269,10.3958
1.64,59.294,117.921,48.4556,35.5282,-4.27486,-47.2221,10.7375
1.66,59.9899,118.055,49.1643,35.4359,-4.6185,-17.1819,11.0861
1.68,60.6838,118.194,49.8719,35.3804,-2.77293,92.2783,11.4396
1.7,61.3745,118.336,50.577,35.2559,-6.22244,-172.476,11.8019
1.72,62.0626,118.482,51.2804,35.1707,-4.26038,98.1032,12.1705
1.74,62.7485,118.632,51.9826,35.1091,-3.0834,58.8491,12.5441
1.76,63.4322,118.786,52.6835,35.0432,-3.29357,-10.5085,12.9224
1.78,64.1119,118.945,53.3815,34.8983,-7.24354,-197.499,13.3128
1.8,64.7891,119.108,54.078,34.825,-3.66469,178.943,13.708
1.82,65.4639,119.275,54.7731,34.7553,-3.48781,8.84385,14.1086
1.84,66.1357,119.445,55.4662,34.6565,-4.93689,-72.4536,14.5162
1.86,66.8041,119.621,56.1574,34.5617,-4.74207,9.74074,14.9322
1.88,67.4698,119.802,56.8472,34.4866,-3.75511,49.3479,15.3537
1.9,68.1322,119.985,57.5346,34.3712,-5.76776,-100.632,15.7828
1.92,68.7913,120.175,58.2204,34.2886,-4.13079,81.8486,16.2196
1.94,69.4473,120.368,58.9042,34.1918,-4.84282,-35.6017,16.6629
1.96,70.1006,120.567,59.5871,34.144,-2.38943,122.67,17.1113
1.98,70.7498,120.769,60.2671,34.0003,-7.18582,-239.82,17.569
2,71.3953,120.976,60.9449,33.8914,-5.44174,87.2041,18.035
2.02,72.0378,121.188,61.6216,33.8326,-2.94007,125.083,18.5065
2.04,72.677,121.405,62.2965,33.7472,-4.27399,-66.6961,18.9842
2.06,73.3123,121.627,62.9696,33.6524,-4.73843,-23.2221,19.4699
2.08,73.9436,121.854,63.6401,33.5289,-6.17447,-71.8018,19.9644
2.1,74.5714,122.084,64.3091,33.4465,-4.12021,102.713,20.4644
2.12,75.1954,122.32,64.9762,33.3582,-4.41588,-14.7837,20.9719
2.14,75.8155,122.561,65.6411,33.2459,-5.61554,-59.983,21.4869
2.16,76.4316,122.807,66.3047,33.1798,-3.30473,115.541,22.0089
2.18,77.044,123.057,66.9664,33.0813,-4.92271,-80.8991,22.5371
2.2,77.652,123.313,67.6259,32.9748,-5.32386,-20.0575,23.0738
2.22,78.2557,123.574,68.2834,32.8771,-4.88543,21.9218,23.6179
2.24,78.8554,123.839,68.9393,32.7974,-3.98423,45.0596,24.1683
2.26,79.4513,124.11,69.5939,32.7254,-3.60374,19.0249,24.724
2.28,80.0425,124.386,70.2461,32.6132,-5.60867,-100.247,25.288
2.3,80.629,124.666,70.8961,32.5008,-5.61782,-0.457435,25.8606
2.32,81.2112,124.952,71.545,32.4414,-2.9736,132.211,26.4387
2.34,81.7893,125.243,72.1923,32.3668,-3.72874,-37.7573,27.0221
2.36,82.363,125.54,72.838,32.2838,-4.14994,-21.06,27.6114
2.38,82.9314,125.84,73.4809,32.1479,-6.79292,-132.149,28.2106
2.4,83.4954,126.147,74.1228,32.0926,-2.76588,201.352,28.815
2.42,84.0549,126.458,74.7632,32.0201,-3.6242,-42.9158,29.4241
2.44,84.6098,126.775,75.4023,31.9552,-3.24745,18.8377,30.0392
2.46,85.1595,127.097,76.0392,31.8457,-5.47328,-111.292,30.6615
2.48,85.7045,127.424,76.675,31.7875,-2.90852,128.238,31.2897
2.5,86.2447,127.756,77.3091,31.7083,-3.96266,-52.707,31.9225
2.52,86.7801,128.094,77.9422,31.6539,-2.71986,62.14,32.5607
2.54,87.3104,128.437,78.5735,31.5638,-4.50696,-89.3546,33.2044
2.56,87.8357,128.785,79.2037,31.5136,-2.50638,100.029,33.853
2.58,88.3562,129.139,79.8331,31.4688,-2.24204,13.2171,34.5062
2.6,88.8715,129.498,80.461,31.3952,-3.68176,-71.9863,35.1635
2.62,89.3818,129.861,81.0874,31.3186,-3.8265,-7.23699,35.8258
2.64,89.8868,130.23,81.7129,31.2747,-2.19752,81.4494,36.4923
2.66,90.3869,130.605,82.3379,31.2523,-1.11771,53.9905,37.1618
2.68,90.8822,130.984,82.9615,31.179,-3.66585,-127.407,37.8346
2.7,91.3709,131.369,83.5839,31.121,-2.9007,38.2573,38.5115
2.72,91.8563,131.76,84.2069,31.1459,1.24583,207.326,39.1912
2.74,92.3356,132.155,84.8281,31.0642,-4.08536,-266.559,39.8733
2.76,92.8089,132.555,85.448,30.9951,-3.45452,31.5423,40.5573
2.78,93.2781,132.962,86.0688,31.0365,2.06936,276.194,41.2435
2.8,93.7413,133.373,86.6882,30.9727,-3.18939,-262.938,41.9321
2.82,94.1997,133.79,87.3076,30.969,-0.183895,150.275,42.6218
2.84,94.6534,134.212,87.9278,31.0073,1.91582,104.986,43.3124
2.86,95.1014,134.639,88.5467,30.9479,-2.97058,-244.32,44.0038
2.88,95.5439,135.072,89.1653,30.9313,-0.830311,107.014,44.6958
2.9,95.9808,135.51,89.7839,30.9274,-0.196737,31.6787,45.3879
2.92,96.4124,135.953,90.4026,30.9335,0.306,25.1368,46.0798
2.94,96.8396,136.402,91.0222,30.9828,2.46574,107.987,46.7713
2.96,97.2605,136.855,91.6409,30.9353,-2.37558,-242.066,47.4622
2.98,97.6763,137.314,92.2605,30.979,2.18484,228.021,48.1514
3,98.088,137.779,92.8809,31.0219,2.14403,-2.04072,48.8391
3.02,98.4926,138.248,93.5004,30.9711,-2.53974,-234.189,49.5253
3.04,98.8931,138.723,94.1217,31.0663,4.75865,364.92,50.2097
3.06,99.2877,139.203,94.7431,31.071,0.237032,-226.081,50.8918
3.08,99.6774,139.687,95.3649,31.09,0.94966,35.6314,51.5704
3.1,100.062,140.178,95.9886,31.1831,4.65426,185.23,52.2462
3.12,100.441,140.674,96.6126,31.203,0.993494,-183.038,52.9199
3.14,100.817,141.178,97.242,31.4671,13.2052,610.587,53.5947
3.16,101.196,141.697,97.8841,32.1083,32.0603,942.751,54.2773
3.18,101.579,142.237,98.5458,33.0855,48.8604,840.005,54.9748
3.2,101.966,142.797,99.2266,34.0402,47.7349,-56.2726,55.6876
3.22,102.358,143.379,99.9284,35.0885,52.4172,234.115,56.4141
3.24,102.754,143.984,100.652,36.159,53.525,55.3888,57.1532
3.26,103.152,144.611,101.394,37.1342,48.7613,-238.184,57.9054
3.28,103.554,145.26,102.158,38.1928,52.9294,208.405,58.6702
3.3,103.958,145.934,102.943,39.2462,52.6695,-12.9965,59.4446
3.32,104.364,146.631,103.75,40.358,55.5874,145.896,60.2281
3.34,104.77,147.353,104.578,41.4109,52.6474,-147.001,61.0221
3.36,105.177,148.1,105.429,42.5226,55.5836,146.81,61.8229
3.38,105.583,148.872,106.302,43.6336,55.5527,-1.54184,62.6295
3.4,105.989,149.67,107.197,44.7532,55.9756,21.1439,63.4437
3.42,106.393,150.494,108.114,45.8901,56.848,43.6169,64.2616
3.44,106.795,151.345,109.056,47.0643,58.709,93.0538,65.0813
3.46,107.195,152.221,110.019,48.1442,53.9928,-235.814,65.904
3.48,107.589,153.119,110.999,49.043,44.9426,-452.51,66.7207
3.5,107.973,154.03,111.988,49.4195,18.8257,-1305.84,67.5261
3.52,108.346,154.95,112.981,49.6395,11.0008,-391.243,68.3175
3.54,108.709,155.88,113.978,49.8924,12.6442,82.1683,69.0897
3.56,109.06,156.818,114.98,50.0947,10.1118,-126.62,69.8474
3.58,109.401,157.764,115.986,50.2908,9.80786,-15.1979,70.5883
3.6,109.73,158.72,116.997,50.5381,12.365,127.855,71.3129
3.62,110.048,159.682,118.011,50.6856,7.3724,-249.628,72.0236
3.64,110.357,160.653,119.029,50.929,12.1709,239.926,72.7149
3.66,110.656,161.631,120.052,51.1452,10.8136,-67.8661,73.392
3.68,110.943,162.617,121.079,51.3607,10.7709,-2.13207,74.052
3.7,111.221,163.611,122.111,51.5669,10.3136,-22.8678,74.6973
3.72,111.488,164.61,123.146,51.7418,8.74163,-78.5981,75.3272
3.74,111.746,165.618,124.186,52.0058,13.201,222.97,75.9401
3.76,111.994,166.631,125.228,52.1242,5.92163,-363.97,76.5393
3.78,112.232,167.652,126.276,52.4148,14.5311,430.472,77.1205
3.8,112.462,168.677,127.327,52.5403,6.27162,-412.972,77.6902
3.82,112.682,169.709,128.382,52.7429,10.1328,193.059,78.2421
3.84,112.893,170.746,129.441,52.9479,10.2463,5.67621,78.781
3.86,113.095,171.791,130.505,53.1922,12.2177,98.5671,79.3043
3.88,113.287,172.84,131.572,53.3305,6.91462,-265.152,79.813
3.9,113.472,173.894,132.642,53.5147,9.20894,114.716,80.3084
3.92,113.648,174.953,133.715,53.6696,7.74482,-73.2056,80.7893
3.94,113.817,176.017,134.793,53.8908,11.0585,165.685,81.2591
3.96,113.977,177.087,135.874,54.0558,8.25296,-140.278,81.7099
3.98,114.13,178.162,136.96,54.2788,11.1487,144.789,82.1506
4,114.274,179.24,138.048,54.3977,5.94335,-260.27,82.577
4.02,114.411,180.322,139.138,54.5264,6.43969,24.8168,82.9934
4.04,114.541,181.41,140.234,54.8025,13.8002,368.025,83.3921
4.06,114.663,182.502,141.333,54.9423,6.99104,-340.458,83.7804
4.08,114.779,183.597,142.435,55.0743,6.60369,-19.3676,84.1553
4.1,114.888,184.697,143.539,55.2222,7.39089,39.3601,84.5196
4.12,114.99,185.8,144.648,55.431,10.4398,152.447,84.8692
4.14,115.086,186.907,145.758,55.5357,5.23883,-260.05,85.2084
4.16,115.176,188.018,146.873,55.7316,9.79082,227.599,85.5339
4.18,115.259,189.133,147.991,55.9008,8.46404,-66.339,85.8485
4.2,115.338,190.25,149.111,55.9955,4.73089,-186.657,86.1504
4.22,115.41,191.361,150.224,55.6432,-17.6147,-1117.28,86.4393
4.24,115.476,192.458,151.324,54.9916,-32.5775,-748.138,86.7115
4.26,115.535,193.537,152.403,53.9882,-50.1714,-879.697,86.9673
4.28,115.589,194.595,153.463,52.9664,-51.0881,-45.8331,87.2084
4.3,115.637,195.633,154.502,51.9601,-50.3173,38.5367,87.4337
4.32,115.681,196.651,155.521,50.9729,-49.3612,47.8069,87.6458
4.34,115.72,197.65,156.52,49.9561,-50.8401,-73.9451,87.8432
4.36,115.755,198.627,157.499,48.9025,-52.6755,-91.7695,88.0289
4.38,115.786,199.584,158.456,47.8678,-51.7353,47.0106,88.2015
4.4,115.814,200.519,159.392,46.8009,-53.3458,-80.5281,88.3635
4.42,115.839,201.435,160.308,45.8042,-49.836,175.489,88.5135
4.44,115.861,202.329,161.202,44.6934,-55.5397,-285.184,88.6526
4.46,115.881,203.201,162.074,43.6079,-54.2775,63.1111,88.7828
4.48,115.898,204.052,162.926,42.6005,-50.3689,195.43,88.9018
4.5,115.913,204.881,163.755,41.4479,-57.6274,-362.927,89.0133
4.52,115.927,205.69,164.563,40.4181,-51.4927,306.737,89.1155
4.54,115.937,206.476,165.35,39.3377,-54.02,-126.367,89.2084
4.56,115.948,207.239,166.113,38.1663,-58.5671,-227.352,89.2953
4.58,115.956,207.982,166.856,37.1088,-52.8752,284.596,89.375
4.6,115.964,208.701,167.575,35.9728,-56.8023,-196.358,89.446
4.62,115.97,209.399,168.273,34.8834,-54.4693,116.651,89.5123
4.64,115.975,210.074,168.948,33.7751,-55.4163,-47.3505,89.5716
4.66,115.98,210.726,169.6,32.5993,-58.7876,-168.562,89.6252
4.68,115.983,211.356,170.231,31.5168,-54.126,233.078,89.6736
4.7,115.987,211.964,170.838,30.3786,-56.9091,-139.153,89.7173
4.72,115.989,212.548,171.422,29.1805,-59.9059,-149.842,89.757
4.74,115.992,213.11,171.984,28.1106,-53.4963,320.481,89.7906
4.76,115.993,213.649,172.523,26.9403,-58.5121,-250.789,89.8219
4.78,115.995,214.163,173.038,25.7415,-59.9402,-71.4057,89.8493
4.8,115.996,214.656,173.53,24.6189,-56.1326,190.377,89.8746
4.82,115.997,215.126,174,23.5027,-55.8111,16.0775,89.8935
4.84,115.998,215.571,174.445,22.2657,-61.8454,-301.713,89.9114
4.86,115.998,215.994,174.868,21.1471,-55.932,295.669,89.9269
4.88,115.999,216.393,175.267,19.9589,-59.4079,-173.794,89.9415
4.9,115.999,216.768,175.643,18.7534,-60.2778,-43.4981,89.9527
4.92,115.999,217.121,175.995,17.644,-55.4711,240.338,89.9608
4.94,116,217.45,176.324,16.4519,-59.6035,-206.623,89.9683
4.96,116,217.755,176.629,15.2202,-61.5875,-99.199,89.9744
4.98,116,218.036,176.91,14.0832,-56.8455,237.1,89.9795
5,116,218.294,177.168,12.8898,-59.6728,-141.362,89.9841
5.02,116,218.527,177.401,11.645,-62.2382,-128.272,89.9883
5.04,116,218.738,177.612,10.5238,-56.0601,308.905,89.9903
5.06,116,218.924,177.798,9.33167,-59.6073,-177.36,89.9917
5.08,116,219.086,177.96,8.08298,-62.4346,-141.362,89.993
5.1,116,219.225,178.099,6.93691,-57.3037,256.545,89.994
5.12,116,219.339,178.213,5.73822,-59.9346,-131.545,89.9949
5.14,116,219.429,178.303,4.49084,-62.3691,-121.728,89.9956
5.16,116,219.496,178.37,3.34346,-57.3691,250,89.9961
5.18,116,219.539,178.413,2.14607,-59.8691,-125,89.9964
5.2,116,219.559,178.433,0.997382,-57.4346,121.728,89.9966
5.22,116,219.564,178.438,0.25,-37.3691,1003.27,89.9966
5.24,116,219.564,178.438,0,-12.5,1243.46,89.9966
