"time","x","y","position","velocity","acceleration","jerk","heading"
0,0,300,0,0,0,0,0
0.02,0.0016,300,0.0016,0.24,24,1200,-2.67677e-05
0.04,0.0128,300,0.0128,0.96,48,1200,-0.000214142
0.06,0.0432,300,0.0432,2.16,72,1200,-0.000722729
0.08,0.1024,300,0.1024,3.84,96,1200,-0.00171314
0.1,0.2,300,0.2,6,120,1200,-0.00334597
0.12,0.344,300,0.344,8.4,120,0,-0.00575507
0.14,0.536,300,0.536,10.8,120,0,-0.0089672
0.16,0.776,300,0.776,13.2,120,0,-0.0129824
0.18,1.064,300,1.064,15.6,120,0,-0.0183819
0.2,1.4,300,1.4,18,120,0,-0.0270551
0.22,1.784,300,1.784,20.4,120,0,-0.0369674
0.24,2.216,299.999,2.216,22.8,120,0,-0.0532465
0.26,2.696,299.999,2.696,25.2,120,0,-0.0770319
0.28,3.224,299.998,3.224,27.6,120,0,-0.107187
0.3,3.8,299.997,3.8,30,120,0,-0.145992
0.32,4.424,299.995,4.424,32.4,120,0,-0.194082
0.34,5.09593,299.993,5.09594,34.7733,112,-400,-0.25148
0.36,5.81219,299.989,5.81221,36.7733,88,-1200,-0.328923
0.38,6.56364,299.984,6.56367,38.2933,64,-1200,-0.415274
0.4,7.34068,299.978,7.34074,39.3333,40,-1200,-0.515699
0.42,8.13371,299.97,8.13381,39.8933,16,-1200,-0.632199
0.44,8.93318,299.961,8.93333,40,0,-800,-0.75838
0.46,9.7331,299.949,9.73333,40,0,0,-0.89805
0.48,10.533,299.936,10.5333,40,0,0,-1.05109
0.5,11.3328,299.92,11.3333,40,0,0,-1.21351
0.52,12.1326,299.902,12.1333,40,0,0,-1.38467
0.54,12.9324,299.881,12.9333,40,0,0,-1.57656
0.56,13.732,299.858,13.7333,40,0,0,-1.77692
0.58,14.5316,299.832,14.5333,40,0,0,-1.98933
0.6,15.3311,299.803,15.3333,40,0,0,-2.21506
0.62,16.1304,299.77,16.1333,40,0,0,-2.4531
0.64,16.9296,299.734,16.9333,40,0,0,-2.69892
0.66,17.7286,299.695,17.7333,40,0,0,-2.96912
0.68,18.5274,299.651,18.5333,40,0,0,-3.24907
0.7,19.326,299.604,19.3333,40,0,0,-3.53994
0.72,20.1244,299.553,20.1333,40,0,0,-3.84462
0.74,20.9224,299.497,20.9333,40,0,0,-4.16832
0.76,21.7202,299.437,21.7333,40,0,0,-4.50281
0.78,22.5175,299.372,22.5333,40,0,0,-4.85528
0.8,23.3144,299.301,23.3333,40,0,0,-5.2239
0.82,24.1109,299.226,24.1333,40,0,0,-5.60549
0.84,24.9068,299.145,24.9333,40,0,0,-5.99843
0.86,25.7021,299.059,25.7333,40,0,0,-6.42163
0.88,26.4967,298.966,26.5333,40,0,0,-6.85793
0.9,27.2906,298.868,27.3333,40,0,0,-7.30733
0.92,28.0837,298.763,28.1333,40,0,0,-7.7733
0.94,28.8759,298.652,28.9333,40,0,0,-8.26668
0.96,29.6671,298.533,29.7333,40,0,0,-8.77654
0.98,30.4572,298.408,30.5333,40,0,0,-9.30296
1,31.2461,298.275,31.3333,40,0,0,-9.85152
1.02,32.0336,298.134,32.1333,40,0,0,-10.424
1.04,32.8197,297.985,32.9333,40,0,0,-11.014
1.06,33.6041,297.829,33.7333,40,0,0,-11.6255
1.08,34.3868,297.663,34.5333,40,0,0,-12.2658
1.1,35.1676,297.489,35.3333,40,0,0,-12.9296
1.12,35.9463,297.305,36.1333,40,0,0,-13.6118
1.14,36.7227,297.112,36.9333,40,0,0,-14.3149
1.16,37.4966,296.91,37.7333,40,0,0,-15.0547
1.18,38.2678,296.697,38.5333,40,0,0,-15.8191
1.2,39.036,296.474,39.3333,40,0,0,-16.6059
1.22,39.8011,296.24,40.1333,40,0,0,-17.4146
1.24,40.5626,295.995,40.9333,40,0,0,-18.2495
1.26,41.3205,295.739,41.7333,40,0,0,-19.1254
1.28,42.0743,295.471,42.5333,40,0,0,-20.0256
1.3,42.8238,295.191,43.3333,40,0,0,-20.949
1.32,43.5686,294.899,44.1333,40,0,0,-21.8964
1.34,44.3083,294.595,44.9333,40,0,0,-22.8718
1.36,45.0427,294.277,45.7333,40,0,0,-23.8879
1.38,45.7713,293.947,46.5333,40,0,0,-24.9286
1.4,46.4936,293.603,47.3333,40,0,0,-25.9928
1.42,47.2094,293.246,48.1333,40,0,0,-27.0803
1.44,47.9182,292.875,48.9333,40,0,0,-28.1937
1.46,48.6195,292.49,49.7333,40,0,0,-29.3396
1.48,49.3129,292.091,50.5333,40,0,0,-30.5098
1.5,49.998,291.678,51.3333,40,0,0,-31.7013
1.52,50.6742,291.251,52.1333,40,0,0,-32.9118
1.54,51.3411,290.809,52.9333,40,0,0,-34.1421
1.56,51.9983,290.353,53.7333,40,0,0,-35.3924
1.58,52.6454,289.882,54.5333,40,0,0,-36.6582
1.6,53.2818,289.398,55.3333,40,0,0,-37.9381
1.62,53.9072,288.899,56.1333,40,0,0,-39.23
1.64,54.5211,288.386,56.9333,40,0,0,-40.5309
1.66,55.1232,287.859,57.7333,40,0,0,-41.8386
1.68,55.7131,287.319,58.5333,40,0,0,-43.1494
1.7,56.2904,286.765,59.3333,40,0,0,-44.4617
1.72,56.8549,286.198,60.1333,40,0,0,-45.7734
1.74,57.4063,285.618,60.9333,40,0,0,-47.0814
1.76,57.9444,285.026,61.7333,40,0,0,-48.3805
1.78,58.4689,284.422,62.5333,40,0,0,-49.6704
1.8,58.9797,283.807,63.3333,40,0,0,-50.9497
1.82,59.4767,283.18,64.1333,40,0,0,-52.2169
1.84,59.9598,282.542,64.9333,40,0,0,-53.4687
1.86,60.429,281.894,65.7333,40,0,0,-54.7012
1.88,60.8843,281.236,66.5333,40,0,0,-55.9122
1.9,61.3256,280.569,67.3333,40,0,0,-57.1016
1.92,61.7532,279.893,68.1333,40,0,0,-58.2698
1.94,62.1669,279.208,68.9333,40,0,0,-59.4144
1.96,62.5671,278.516,69.7333,40,0,0,-60.5321
1.98,62.9538,277.815,70.5333,40,0,0,-61.6272
2,63.3273,277.108,71.3333,40,0,0,-62.6963
2.02,63.6876,276.394,72.1333,40,0,0,-63.737
2.04,64.0352,275.673,72.9333,40,0,0,-64.7481
2.06,64.3701,274.947,73.7333,40,0,0,-65.7301
2.08,64.6926,274.215,74.5333,40,0,0,-66.6885
2.1,65.003,273.477,75.3333,40,0,0,-67.6227
2.12,65.3016,272.735,76.1333,40,0,0,-68.5306
2.14,65.5886,271.988,76.9333,40,0,0,-69.4034
2.16,65.8643,271.237,77.7333,40,0,0,-70.2487
2.18,66.129,270.482,78.5333,40,0,0,-71.0722
2.2,66.3831,269.724,79.3333,40,0,0,-71.8737
2.22,66.6267,268.962,80.1333,40,0,0,-72.651
2.24,66.8602,268.197,80.9333,40,0,0,-73.3948
2.26,67.0838,267.429,81.7333,40,0,0,-74.1149
2.28,67.2979,266.658,82.5333,40,0,0,-74.8161
2.3,67.5027,265.884,83.3333,40,0,0,-75.4961
2.32,67.6985,265.109,84.1333,40,0,0,-76.1529
2.34,67.8855,264.331,84.9333,40,0,0,-76.7839
2.36,68.0641,263.551,85.7333,40,0,0,-77.395
2.38,68.2345,262.769,86.5333,40,0,0,-77.99
2.4,68.3969,261.986,87.3333,40,0,0,-78.5637
2.42,68.5517,261.201,88.1333,40,0,0,-79.1145
2.44,68.6989,260.415,88.9333,40,0,0,-79.6499
2.46,68.839,259.627,89.7333,40,0,0,-80.1691
2.48,68.972,258.838,90.5333,40,0,0,-80.6672
2.5,69.0983,258.048,91.3333,40,0,0,-81.1483
2.52,69.2181,257.257,92.1333,40,0,0,-81.6164
2.54,69.3315,256.466,92.9333,40,0,0,-82.0721
2.56,69.4388,255.673,93.7333,40,0,0,-82.5042
2.58,69.5401,254.879,94.5333,40,0,0,-82.9237
2.6,69.6357,254.085,95.3333,40,0,0,-83.3327
2.62,69.7257,253.29,96.1333,40,0,0,-83.7302
2.64,69.8104,252.495,96.9333,40,0,0,-84.1076
2.66,69.8899,251.699,97.7333,40,0,0,-84.4737
2.68,69.9644,250.902,98.5333,40,0,0,-84.8309
2.7,70.034,250.105,99.3333,40,0,0,-85.175
2.72,70.0989,249.308,100.133,40,0,0,-85.505
2.74,70.1593,248.51,100.933,40,0,0,-85.8273
2.76,70.2152,247.712,101.733,40,0,0,-86.1371
2.78,70.267,246.914,102.533,40,0,0,-86.435
2.8,70.3146,246.115,103.333,40,0,0,-86.7245
2.82,70.3583,245.316,104.133,40,0,0,-87.0066
2.84,70.3981,244.517,104.933,40,0,0,-87.2753
2.86,70.4343,243.718,105.733,40,0,0,-87.5348
2.88,70.4668,242.919,106.533,40,0,0,-87.7879
2.9,70.4959,242.119,107.333,40,0,0,-88.0316
2.92,70.5217,241.32,108.133,40,0,0,-88.2651
2.94,70.5443,240.52,108.933,40,0,0,-88.4937
2.96,70.5638,239.72,109.733,40,0,0,-88.7111
2.98,70.5802,238.92,110.534,40.1067,16,800,-88.9215
3,70.5939,238.113,111.341,40.6667,40,1200,-89.1277
3.02,70.6049,237.29,112.164,41.7067,64,1200,-89.3315
3.04,70.6133,236.442,113.012,43.2267,88,1200,-89.5299
3.06,70.6189,235.558,113.896,45.2267,112,1200,-89.7316
3.08,70.6216,234.63,114.824,47.6,120,400,-89.9325
3.1,70.6209,233.654,115.8,50,120,0,-90.1351
3.12,70.6166,232.63,116.824,52.4,120,0,-90.3396
3.14,70.6083,231.558,117.896,54.8,120,0,-90.5403
3.16,70.5957,230.438,119.016,57.2,120,0,-90.7428
3.18,70.5785,229.27,120.184,59.6,120,0,-90.9371
3.2,70.5565,228.054,121.4,62,120,0,-91.1302
3.22,70.5294,226.791,122.664,64.4,120,0,-91.3174
3.24,70.4971,225.479,123.976,66.8,120,0,-91.5015
3.26,70.4593,224.12,125.336,69.2,120,0,-91.6738
3.28,70.416,222.712,126.744,71.6,120,0,-91.8406
3.3,70.3672,221.257,128.2,74,120,0,-91.9987
3.32,70.3127,219.754,129.704,76.4,120,0,-92.1463
3.34,70.2526,218.203,131.256,78.8,120,0,-92.2848
3.36,70.187,216.605,132.856,81.2,120,0,-92.4118
3.38,70.1159,214.958,134.504,83.6,120,0,-92.5245
3.4,70.0396,213.264,136.2,86,120,0,-92.626
3.42,69.9583,211.522,137.944,88.4,120,0,-92.7146
3.44,69.8721,209.732,139.736,90.8,120,0,-92.7883
3.46,69.7816,207.894,141.576,93.2,120,0,-92.8467
3.48,69.687,206.008,143.464,95.6,120,0,-92.8897
3.5,69.5889,204.075,145.4,98,120,0,-92.9171
3.52,69.4876,202.093,147.384,100.4,120,0,-92.9282
3.54,69.3838,200.064,149.416,102.8,120,0,-92.9225
3.56,69.278,197.987,151.496,105.2,120,0,-92.8991
3.58,69.1711,195.861,153.624,107.6,120,0,-92.858
3.6,69.0636,193.688,155.8,110,120,0,-92.7995
3.62,68.9564,191.467,158.024,112.4,120,0,-92.7234
3.64,68.8502,189.197,160.296,114.773,112,-400,-92.6285
3.66,68.7462,186.883,162.612,116.773,88,-1200,-92.516
3.68,68.6455,184.534,164.964,118.293,64,-1200,-92.3877
3.7,68.5494,182.159,167.341,119.333,40,-1200,-92.244
3.72,68.4589,179.768,169.734,119.893,16,-1200,-92.0869
3.74,68.3749,177.37,172.133,120,0,-800,-91.9192
3.76,68.2982,174.971,174.533,120,0,0,-91.7427
3.78,68.229,172.572,176.933,120,0,0,-91.5597
3.8,68.1676,170.173,179.333,120,0,0,-91.3726
3.82,68.1141,167.773,181.733,120,0,0,-91.1839
3.84,68.0684,165.374,184.133,120,0,0,-90.9961
3.86,68.0306,162.974,186.533,120,0,0,-90.8124
3.88,68.0003,160.574,188.933,120,0,0,-90.6358
3.9,67.9772,158.174,191.333,120,0,0,-90.4698
3.92,67.9608,155.774,193.733,120,0,0,-90.318
3.94,67.9505,153.374,196.133,120,0,0,-90.1841
3.96,67.9452,150.974,198.533,120,0,0,-90.0724
3.98,67.9442,148.576,200.932,119.786,-22.6667,-1133.33,-89.9758
4,67.9476,146.186,203.322,119.093,-46.6667,-1200,-89.8679
4.02,67.955,143.815,205.692,117.919,-70.6667,-1200,-89.7753
4.04,67.9659,141.472,208.035,116.266,-94.6667,-1200,-89.6949
4.06,67.9796,139.168,210.34,114.133,-118.667,-1200,-89.6225
4.08,67.9959,136.909,212.599,111.733,-120,-66.6667,-89.5547
4.1,68.0143,134.699,214.809,109.333,-120,0,-89.488
4.12,68.0349,132.536,216.972,106.933,-120,0,-89.42
4.14,68.0576,130.421,219.087,104.533,-120,0,-89.3475
4.16,68.0825,128.355,221.153,102.133,-120,0,-89.2696
4.18,68.1097,126.336,223.172,99.7333,-120,0,-89.1833
4.2,68.1394,124.366,225.143,97.3333,-120,0,-89.0892
4.22,68.1716,122.444,227.065,94.9333,-120,0,-88.9846
4.24,68.2067,120.569,228.94,92.5333,-120,0,-88.8703
4.26,68.2446,118.743,230.767,90.1333,-120,0,-88.7442
4.28,68.2856,116.965,232.545,87.7333,-120,0,-88.6079
4.3,68.3298,115.235,234.276,85.3333,-120,0,-88.4599
4.32,68.3773,113.553,235.959,82.9333,-120,0,-88.3026
4.34,68.4281,111.919,237.593,80.5333,-120,0,-88.1317
4.36,68.4822,110.333,239.18,78.1333,-120,0,-87.9529
4.38,68.5397,108.795,240.719,75.7333,-120,0,-87.7627
4.4,68.6004,107.306,242.209,73.3333,-120,0,-87.5637
4.42,68.6642,105.865,243.652,70.9333,-120,0,-87.3565
4.44,68.7311,104.472,245.047,68.5333,-120,0,-87.1407
4.46,68.8008,103.127,246.393,66.1333,-120,0,-86.9178
4.48,68.8731,101.83,247.692,63.7333,-120,0,-86.6892
4.5,68.9479,100.582,248.943,61.3333,-120,0,-86.4546
4.52,69.0247,99.3816,250.145,58.9333,-120,0,-86.2161
4.54,69.1032,98.2296,251.3,56.5333,-120,0,-85.9746
4.56,69.1832,97.1258,252.407,54.1333,-120,0,-85.7292
4.58,69.2642,96.0703,253.465,51.7333,-120,0,-85.4834
4.6,69.3459,95.0629,254.476,49.3333,-120,0,-85.2389
4.62,69.4278,94.1037,255.439,46.9333,-120,0,-84.9951
4.64,69.5095,93.1923,256.354,44.623,-105.333,733.333,-84.7525
4.66,69.5911,92.3232,257.227,42.7563,-81.3333,1200,-84.5122
4.68,69.6732,91.4867,258.067,41.3696,-57.3333,1200,-84.2733
4.7,69.7564,90.6734,258.885,40.463,-33.3333,1200,-84.0324
4.72,69.8417,89.8738,259.689,40.0363,-9.33333,1200,-83.7855
4.74,69.93,89.0786,260.489,40,0,466.667,-83.5308
4.76,70.0219,88.2839,261.289,40,0,0,-83.2679
4.78,70.1175,87.4896,262.089,40,0,0,-82.9971
4.8,70.2169,86.6958,262.889,40,0,0,-82.7169
4.82,70.3203,85.9025,263.689,40,0,0,-82.4268
4.84,70.4278,85.1098,264.489,40,0,0,-82.1254
4.86,70.5395,84.3176,265.289,40,0,0,-81.8135
4.88,70.6555,83.5261,266.089,40,0,0,-81.4923
4.9,70.7761,82.7352,266.889,40,0,0,-81.1598
4.92,70.9014,81.9451,267.689,40,0,0,-80.8159
4.94,71.0314,81.1557,268.489,40,0,0,-80.4609
4.96,71.1665,80.3672,269.289,40,0,0,-80.0936
4.98,71.3066,79.5796,270.089,40,0,0,-79.7131
5,71.4521,78.7929,270.889,40,0,0,-79.3191
5.02,71.6031,78.0073,271.689,40,0,0,-78.9115
5.04,71.7597,77.2228,272.489,40,0,0,-78.4915
5.06,71.9222,76.4395,273.289,40,0,0,-78.059
5.08,72.0907,75.6574,274.089,40,0,0,-77.6129
5.1,72.2655,74.8767,274.889,40,0,0,-77.1467
5.12,72.4467,74.0975,275.689,40,0,0,-76.664
5.14,72.6344,73.3199,276.489,40,0,0,-76.1666
5.16,72.8291,72.5439,277.289,40,0,0,-75.6542
5.18,73.0307,71.7698,278.089,40,0,0,-75.1262
5.2,73.2397,70.9975,278.889,40,0,0,-74.5793
5.22,73.4561,70.2274,279.689,40,0,0,-74.0131
5.24,73.6803,69.4594,280.489,40,0,0,-73.4279
5.26,73.9124,68.6939,281.289,40,0,0,-72.8232
5.28,74.1528,67.9308,282.089,40,0,0,-72.1993
5.3,74.4015,67.1705,282.889,40,0,0,-71.553
5.32,74.659,66.413,283.689,40,0,0,-70.8844
5.34,74.9253,65.6587,284.489,40,0,0,-70.1957
5.36,75.2009,64.9076,285.289,40,0,0,-69.4865
5.38,75.4859,64.1601,286.089,40,0,0,-68.7564
5.4,75.7805,63.4164,286.889,40,0,0,-68.0009
5.42,76.0852,62.6767,287.689,40,0,0,-67.22
5.44,76.4,61.9412,288.489,40,0,0,-66.4165
5.46,76.7252,61.2103,289.289,40,0,0,-65.5893
5.48,77.0612,60.4843,290.089,40,0,0,-64.7373
5.5,77.4081,59.7634,290.889,40,0,0,-63.8571
5.52,77.7661,59.048,291.689,40,0,0,-62.9499
5.54,78.1356,58.3384,292.489,40,0,0,-62.0189
5.56,78.5166,57.6351,293.289,40,0,0,-61.0642
5.58,78.9095,56.9382,294.089,40,0,0,-60.0857
5.6,79.3145,56.2483,294.889,40,0,0,-59.0794
5.62,79.7316,55.5656,295.689,40,0,0,-58.0464
5.64,80.1611,54.8907,296.489,40,0,0,-56.9907
5.66,80.603,54.2239,297.289,40,0,0,-55.9127
5.68,81.0576,53.5656,298.089,40,0,0,-54.813
5.7,81.5249,52.9163,298.889,40,0,0,-53.6886
5.72,82.005,52.2763,299.689,40,0,0,-52.5417
5.74,82.4979,51.6462,300.489,40,0,0,-51.3765
5.76,83.0035,51.0263,301.289,40,0,0,-50.1942
5.78,83.522,50.4171,302.089,40,0,0,-48.9959
5.8,84.0532,49.8189,302.889,40,0,0,-47.7806
5.82,84.5971,49.2323,303.689,40,0,0,-46.5516
5.84,85.1534,48.6574,304.489,40,0,0,-45.3126
5.86,85.7221,48.0948,305.289,40,0,0,-44.0652
5.88,86.303,47.5447,306.089,40,0,0,-42.8112
5.9,86.8958,47.0075,306.889,40,0,0,-41.5522
5.92,87.5003,46.4835,307.689,40,0,0,-40.2915
5.94,88.1161,45.9729,308.489,40,0,0,-39.0317
5.96,88.743,45.476,309.289,40,0,0,-37.7745
5.98,89.3807,44.9929,310.089,40,0,0,-36.522
6,90.0288,44.5239,310.889,40,0,0,-35.2778
6.02,90.6868,44.069,311.689,40,0,0,-34.0445
6.04,91.3544,43.6283,312.489,40,0,0,-32.823
6.06,92.0313,43.2018,313.289,40,0,0,-31.6146
6.08,92.7169,42.7896,314.089,40,0,0,-30.421
6.1,93.4109,42.3917,314.889,40,0,0,-29.2471
6.12,94.1129,42.008,315.689,40,0,0,-28.0942
6.14,94.8223,41.6383,316.489,40,0,0,-26.9611
6.16,95.5389,41.2826,317.289,40,0,0,-25.8493
6.18,96.2622,40.9408,318.089,40,0,0,-24.76
6.2,96.9917,40.6125,318.889,40,0,0,-23.6984
6.22,97.7271,40.2977,319.689,40,0,0,-22.6641
6.24,98.4681,39.9961,320.489,40,0,0,-21.6541
6.26,99.2142,39.7075,321.289,40,0,0,-20.6688
6.28,99.9651,39.4315,322.089,40,0,0,-19.7083
6.3,100.72,39.168,322.889,40,0,0,-18.7776
6.32,101.48,38.9166,323.689,40,0,0,-17.8758
6.34,102.243,38.6771,324.489,40,0,0,-16.999
6.36,103.01,38.4491,325.289,40,0,0,-16.1471
6.38,103.78,38.2323,326.089,40,0,0,-15.3199
6.4,104.553,38.0264,326.889,40,0,0,-14.5217
6.42,105.329,37.8311,327.689,40,0,0,-13.7527
6.44,106.107,37.6461,328.489,40,0,0,-13.0102
6.46,106.888,37.471,329.289,40,0,0,-12.2929
6.48,107.671,37.3055,330.089,40,0,0,-11.5986
6.5,108.455,37.1494,330.889,40,0,0,-10.931
6.52,109.241,37.0023,331.689,40,0,0,-10.2886
6.54,110.029,36.8638,332.489,40,0,0,-9.66756
6.56,110.819,36.7337,333.289,40,0,0,-9.06759
6.58,111.609,36.6117,334.089,40,0,0,-8.4892
6.6,112.401,36.4975,334.889,40,0,0,-7.94094
6.62,113.194,36.3907,335.689,40,0,0,-7.41491
6.64,113.988,36.2912,336.489,40,0,0,-6.9077
6.66,114.782,36.1985,337.289,40,0,0,-6.41892
6.68,115.578,36.1124,338.089,40,0,0,-5.94818
6.7,116.374,36.0327,338.889,40,0,0,-5.49829
6.72,117.17,35.9591,339.689,40,0,0,-5.07506
6.74,117.968,35.8913,340.489,40,0,0,-4.66951
6.76,118.765,35.829,341.289,40,0,0,-4.28015
6.78,119.563,35.772,342.089,40,0,0,-3.90666
6.8,120.361,35.7201,342.889,40,0,0,-3.55152
6.82,121.16,35.6729,343.689,40,0,0,-3.21795
6.84,121.959,35.6303,344.489,40,0,0,-2.90213
6.86,122.758,35.5921,345.289,40,0,0,-2.60226
6.88,123.557,35.5578,346.089,40,0,0,-2.31663
6.9,124.357,35.5275,346.889,40,0,0,-2.04754
6.92,125.156,35.5007,347.689,40,0,0,-1.7978
6.94,125.956,35.4773,348.489,40,0,0,-1.56511
6.96,126.756,35.4571,349.289,40,0,0,-1.34764
6.98,127.555,35.4399,350.089,40,0,0,-1.14335
7,128.355,35.4253,350.889,40,0,0,-0.954494
7.02,129.155,35.4132,351.689,40,0,0,-0.785216
7.04,129.955,35.4035,352.489,40,0,0,-0.631966
7.06,130.755,35.3957,353.289,40,0,0,-0.493056
7.08,131.555,35.3898,354.089,40,0,0,-0.366912
7.1,132.355,35.3856,354.889,40,0,0,-0.255834
7.12,133.155,35.3827,355.689,40,0,0,-0.166652
7.14,133.955,35.381,356.489,40,0,0,-0.0925471
7.16,134.755,35.3803,357.289,40,0,0,-0.0327656
7.18,135.555,35.3802,358.089,40,0,0,0.012065
7.2,136.355,35.3806,358.889,40,0,0,0.0360152
7.22,137.155,35.3813,359.689,40,0,0,0.0557366
7.24,137.955,35.3822,360.489,40.0896,14.6667,733.333,0.072727
7.26,138.762,35.3833,361.296,40.623,38.6667,1200,0.0860909
7.28,139.583,35.3847,362.117,41.6363,62.6667,1200,0.0951327
7.3,140.43,35.3862,362.964,43.1296,86.6667,1200,0.102654
7.32,141.312,35.3878,363.846,45.103,110.667,1200,0.104276
7.34,142.237,35.3895,364.771,47.4667,120,466.667,0.103208
7.36,143.211,35.3912,365.745,49.8667,120,0,0.0982093
7.38,144.232,35.3929,366.766,52.2667,120,0,0.0882482
7.4,145.301,35.3945,367.835,54.6667,120,0,0.0747497
7.42,146.419,35.3958,368.953,57.0667,120,0,0.0545834
7.44,147.584,35.3966,370.118,59.4667,120,0,0.0304608
7.46,148.797,35.397,371.331,61.8667,120,0,4.03701e-05
7.48,150.059,35.3966,372.593,64.2667,120,0,-0.034974
7.5,151.368,35.3954,373.902,66.6667,120,0,-0.0754812
7.52,152.725,35.3931,375.259,69.0667,120,0,-0.1207
7.54,154.131,35.3895,376.665,71.4667,120,0,-0.171501
7.56,155.584,35.3845,378.118,73.8667,120,0,-0.226626
7.58,157.085,35.3778,379.619,76.2667,120,0,-0.285925
7.6,158.635,35.3692,381.169,78.6667,120,0,-0.348924
7.62,160.232,35.3586,382.766,81.0667,120,0,-0.41498
7.64,161.877,35.3457,384.411,83.4667,120,0,-0.483399
7.66,163.57,35.3304,386.105,85.8667,120,0,-0.553367
7.68,165.312,35.3125,387.846,88.2667,120,0,-0.623881
7.7,167.101,35.2919,389.635,90.6667,120,0,-0.694004
7.72,168.938,35.2685,391.473,93.0667,120,0,-0.762529
7.74,170.823,35.2423,393.358,95.4667,120,0,-0.82811
7.76,172.756,35.2133,395.291,97.8204,109.458,-527.083,-0.889415
7.78,174.733,35.1816,397.268,99.7695,85.4583,-1200,-0.944786
7.8,176.743,35.1475,399.279,101.239,61.4583,-1200,-0.992373
7.82,178.778,35.1115,401.314,102.228,37.4583,-1200,-1.03061
7.84,180.828,35.0741,403.365,102.737,13.4583,-1200,-1.05791
7.86,182.884,35.0358,405.421,102.813,0,-672.917,-1.07289
7.88,184.94,34.9972,407.477,102.813,0,0,-1.07373
7.9,186.996,34.9588,409.533,102.813,0,0,-1.05996
7.92,189.052,34.9212,411.589,102.743,-12.9159,-645.795,-1.0306
7.94,191.102,34.885,413.64,102.245,-36.9159,-1200,-0.984127
7.96,193.138,34.8511,415.676,101.266,-60.9159,-1200,-0.919686
7.98,195.149,34.8201,417.687,99.808,-84.9159,-1200,-0.837485
8,197.126,34.7928,419.665,97.8697,-108.916,-1200,-0.737684
8.02,199.06,34.7698,421.599,95.5209,-120,-554.205,-0.62059
8.04,200.947,34.7514,423.485,93.1209,-120,0,-0.486303
8.06,202.785,34.7381,425.324,90.7209,-120,0,-0.335621
8.08,204.575,34.7301,427.114,88.3209,-120,0,-0.168761
8.1,206.318,34.7276,428.857,85.9209,-120,0,0.0132554
8.12,208.012,34.7308,430.551,83.5209,-120,0,0.210397
8.14,209.659,34.7397,432.197,81.1209,-120,0,0.421815
8.16,211.257,34.7545,433.796,78.7209,-120,0,0.646757
8.18,212.807,34.7751,435.346,76.3209,-120,0,0.884285
8.2,214.309,34.8015,436.849,73.9209,-120,0,1.13432
8.22,215.764,34.8334,438.303,71.5209,-120,0,1.39386
