"time","x","y","position","velocity","acceleration","jerk","heading"
0,0,315,0,0,0,0,0
0.02,0.00160701,315,0.00160701,0.0803504,4.01752,200.876,-2.67677e-05
0.04,0.0128561,315,0.0128561,0.562453,24.1051,1004.38,-0.000214142
0.06,0.0433892,315,0.0433892,1.52666,48.2102,1205.26,-0.000722729
0.08,0.102848,315,0.102848,2.97296,72.3154,1205.26,-0.00171314
0.1,0.200876,315,0.200876,4.90137,96.4205,1205.26,-0.00334597
0.12,0.345507,315,0.345507,7.23154,116.508,1004.38,-0.00575507
0.14,0.538348,315,0.538348,9.64205,120.526,200.876,-0.0089672
0.16,0.779399,315,0.779399,12.0526,120.526,0.00130807,-0.0129824
0.18,1.06881,315,1.06881,14.4707,120.906,19.0207,-0.0183819
0.2,1.40708,315,1.40708,16.9135,122.143,61.8305,-0.0270551
0.22,1.79368,315,1.79368,19.3298,120.811,-66.5821,-0.0369674
0.24,2.22994,314.999,2.22994,21.8132,124.17,167.948,-0.0532465
0.26,2.71617,314.999,2.71617,24.3113,124.91,37.0014,-0.0770319
0.28,3.25206,314.998,3.25206,26.7948,124.171,-36.9318,-0.107187
0.3,3.83822,314.997,3.83822,29.308,125.661,74.4906,-0.145992
0.32,4.47481,314.995,4.47482,31.8297,126.083,21.0858,-0.194082
0.34,5.16177,314.993,5.16178,34.348,125.916,-8.31887,-0.25148
0.36,5.8983,314.989,5.89832,36.8273,123.965,-97.5788,-0.328923
0.38,6.67236,314.984,6.6724,38.7037,93.8189,-1507.3,-0.415274
0.4,7.47569,314.977,7.47575,40.1677,73.2027,-1030.81,-0.515699
0.42,8.29922,314.969,8.29932,41.1785,50.539,-1133.19,-0.632199
0.44,9.13172,314.96,9.13187,41.6277,22.4619,-1403.85,-0.75838
0.46,9.9682,314.947,9.96845,41.8288,10.0519,-620.501,-0.89805
0.48,10.8082,314.933,10.8085,42.0036,8.73969,-65.6109,-1.05109
0.5,11.6505,314.917,11.651,42.1241,6.0252,-135.725,-1.21351
0.52,12.4951,314.898,12.4958,42.2406,5.82656,-9.9316,-1.38467
0.54,13.3451,314.875,13.3461,42.5156,13.7505,396.198,-1.57656
0.56,14.1971,314.851,14.1985,42.6192,5.18128,-428.463,-1.77692
0.58,15.0523,314.823,15.0541,42.7816,8.1164,146.756,-1.98933
0.6,15.9109,314.792,15.9133,42.9561,8.72585,30.4728,-2.21506
0.62,16.7724,314.756,16.7756,43.115,7.94473,-39.0562,-2.4531
0.64,17.6359,314.717,17.6399,43.2183,5.16568,-138.952,-2.69892
0.66,18.5056,314.675,18.5106,43.5345,15.8087,532.152,-2.96912
0.68,19.3775,314.627,19.3839,43.6651,6.53046,-463.913,-3.24907
0.7,20.2522,314.575,20.2601,43.8066,7.07451,27.2023,-3.53994
0.72,21.1302,314.519,21.1398,43.9896,9.15201,103.875,-3.84462
0.74,22.0127,314.457,22.0246,44.2353,12.2867,156.736,-4.16832
0.76,22.8978,314.391,22.9122,44.3811,7.28829,-249.923,-4.50281
0.78,23.7871,314.318,23.8044,44.6111,11.4982,210.498,-4.85528
0.8,24.6801,314.239,24.701,44.828,10.8486,-32.48,-5.2239
0.82,25.5761,314.154,25.6009,44.9962,8.40547,-122.159,-5.60549
0.84,26.4743,314.063,26.5038,45.1441,7.39818,-50.3647,-5.99843
0.86,27.3798,313.965,27.4145,45.5365,19.6179,610.985,-6.42163
0.88,28.2878,313.859,28.3287,45.7123,8.79274,-541.257,-6.85793
0.9,29.1985,313.746,29.2463,45.8789,8.32859,-23.2074,-7.30733
0.92,30.1125,313.625,30.1683,46.1005,11.0816,137.651,-7.7733
0.94,31.0326,313.496,31.0974,46.4552,17.7352,332.681,-8.26668
0.96,31.9558,313.357,32.031,46.679,11.187,-327.412,-8.77654
0.98,32.882,313.211,32.9688,46.8871,10.408,-38.9516,-9.30296
1,33.8125,313.054,33.9124,47.1822,14.7549,217.348,-9.85152
1.02,34.7476,312.886,34.8623,47.4949,15.632,43.8555,-10.424
1.04,35.6854,312.709,35.8169,47.7279,11.6494,-199.132,-11.014
1.06,36.6268,312.521,36.7767,47.9926,13.2355,79.3047,-11.6255
1.08,37.5735,312.321,37.7444,48.3869,19.7182,324.135,-12.2658
1.1,38.5239,312.109,38.7182,48.6867,14.9888,-236.469,-12.9296
1.12,39.4764,311.884,39.6969,48.9371,12.5192,-123.48,-13.6118
1.14,40.4315,311.646,40.681,49.2049,13.3918,43.6271,-14.3149
1.16,41.3927,311.395,41.6745,49.6753,23.5182,506.323,-15.0547
1.18,42.3568,311.129,42.6747,50.0096,16.715,-340.163,-15.8191
1.2,43.3228,310.848,43.6806,50.2947,14.257,-122.901,-16.6059
1.22,44.2904,310.552,44.6924,50.59,14.761,25.2012,-17.4146
1.24,45.2599,310.241,45.7109,50.9258,16.7931,101.607,-18.2495
1.26,46.2351,309.911,46.7402,51.4638,26.898,505.243,-19.1254
1.28,47.2109,309.564,47.7759,51.7847,16.0445,-542.671,-20.0256
1.3,48.1869,309.199,48.8177,52.0918,15.3586,-34.2985,-20.949
1.32,49.1625,308.817,49.8658,52.401,15.4587,5.00489,-21.8964
1.34,50.1384,308.416,50.9208,52.7544,17.6705,110.59,-22.8718
1.36,51.1169,307.992,51.9871,53.3151,28.036,518.275,-23.8879
1.38,52.0936,307.55,53.0594,53.615,14.9916,-652.217,-24.9286
1.4,53.0675,307.086,54.1381,53.9318,15.8417,42.5029,-25.9928
1.42,54.038,306.602,55.2227,54.2295,14.8824,-47.9632,-27.0803
1.44,55.005,306.095,56.3142,54.5753,17.2942,120.591,-28.1937
1.46,55.9693,305.566,57.4142,55.001,21.2831,199.441,-29.3396
1.48,56.9282,305.014,58.5206,55.3178,15.8377,-272.27,-30.5098
1.5,57.8804,304.44,59.6324,55.5943,13.8251,-100.628,-31.7013
1.52,58.8244,303.844,60.7491,55.8318,11.879,-97.3037,-32.9118
1.54,59.7598,303.224,61.8712,56.108,13.8088,96.4883,-34.1421
1.56,60.6859,302.581,62.9985,56.3613,12.6645,-57.2127,-35.3924
1.58,61.601,301.915,64.1302,56.587,11.287,-68.8793,-36.6582
1.6,62.5039,301.228,65.2648,56.7304,7.16753,-205.972,-37.9381
1.62,63.3937,300.518,66.4031,56.9145,9.20586,101.917,-39.23
1.64,64.269,299.787,67.5437,57.0297,5.75895,-172.346,-40.5309
1.66,65.1287,299.034,68.6862,57.1253,4.78026,-48.9345,-41.8386
1.68,65.9716,298.263,69.8291,57.1449,0.979645,-190.031,-43.1494
1.7,66.7969,297.471,70.9728,57.1836,1.9338,47.7075,-44.4617
1.72,67.6037,296.66,72.1163,57.1744,-0.45834,-119.607,-45.7734
1.74,68.3911,295.832,73.259,57.1351,-1.96426,-75.2962,-47.0814
1.76,69.158,294.989,74.3991,57.0053,-6.49067,-226.32,-48.3805
1.78,69.9039,294.13,75.5367,56.8818,-6.17626,15.7208,-49.6704
1.8,70.6286,293.257,76.6711,56.7188,-8.14806,-98.5903,-50.9497
1.82,71.3317,292.37,77.8029,56.5916,-6.36167,89.3199,-52.2169
1.84,72.0128,291.471,78.9309,56.3991,-9.62316,-163.075,-53.4687
1.86,72.6712,290.562,80.0536,56.1347,-13.2199,-179.839,-54.7012
1.88,73.307,289.643,81.1708,55.8598,-13.7437,-26.1881,-55.9122
1.9,73.9201,288.716,82.2819,55.5575,-15.1167,-68.6516,-57.1016
1.92,74.5112,287.782,83.3876,55.2857,-13.5885,76.4104,-58.2698
1.94,75.0799,286.84,84.4875,54.9942,-14.5784,-49.4953,-59.4144
1.96,75.6266,285.895,85.5795,54.5999,-19.7129,-256.722,-60.5321
1.98,76.1519,284.943,86.6668,54.3639,-11.8006,395.612,-61.6272
2,76.6561,283.989,87.7463,53.974,-19.4949,-384.715,-62.6963
2.02,77.1392,283.031,88.8185,53.6104,-18.1792,65.7851,-63.737
2.04,77.6018,282.072,89.8836,53.2559,-17.7247,22.7291,-64.7481
2.06,78.0444,281.113,90.9402,52.8302,-21.2839,-177.963,-65.7301
2.08,78.4681,280.151,91.991,52.54,-14.5137,338.513,-66.6885
2.1,78.8735,279.188,93.0362,52.2595,-14.0235,24.5086,-67.6227
2.12,79.2608,278.225,94.0737,51.8757,-19.1906,-258.354,-68.5306
2.14,79.6298,277.265,95.1025,51.4366,-21.9534,-138.144,-69.4034
2.16,79.9818,276.306,96.1238,51.0652,-18.5708,169.133,-70.2487
2.18,80.3179,275.348,97.1394,50.7823,-14.1433,221.373,-71.0722
2.2,80.6387,274.391,98.1487,50.4644,-15.8995,-87.8075,-71.8737
2.22,80.9443,273.435,99.1522,50.1743,-14.5034,69.8028,-72.651
2.24,81.2346,272.484,100.147,49.7284,-22.2967,-389.663,-73.3948
2.26,81.511,271.535,101.135,49.4204,-15.3961,345.028,-74.1149
2.28,81.7743,270.587,102.119,49.1874,-11.6529,187.163,-74.8161
2.3,82.0247,269.641,103.098,48.933,-12.7207,-53.3905,-75.4961
2.32,82.2626,268.699,104.069,48.565,-18.3972,-283.828,-76.1529
2.34,82.4882,267.76,105.034,48.2676,-14.869,176.411,-76.7839
2.36,82.7026,266.824,105.994,48.0086,-12.9541,95.7456,-77.395
2.38,82.9062,265.89,106.951,47.806,-10.1277,141.318,-77.99
2.4,83.0991,264.96,107.9,47.4929,-15.6553,-276.378,-78.5637
2.42,83.2818,264.034,108.845,47.2158,-13.8544,90.0435,-79.1145
2.44,83.4548,263.11,109.785,46.9916,-11.2109,132.177,-79.6499
2.46,83.6187,262.188,110.721,46.8142,-8.87127,116.981,-80.1691
2.48,83.7734,261.271,111.651,46.5267,-14.3753,-275.199,-80.6672
2.5,83.9196,260.356,112.577,46.2992,-11.3737,150.078,-81.1483
2.52,84.0578,259.444,113.5,46.1284,-8.53754,141.808,-81.6164
2.54,84.1881,258.535,114.418,45.9194,-10.449,-95.5735,-82.0721
2.56,84.3106,257.63,115.332,45.6675,-12.5984,-107.468,-82.5042
2.58,84.4258,256.727,116.242,45.513,-7.72279,243.779,-82.9237
2.6,84.5343,255.827,117.149,45.3405,-8.62564,-45.1425,-83.3327
2.62,84.636,254.928,118.053,45.2072,-6.66777,97.893,-83.7302
2.64,84.7311,254.035,118.951,44.9151,-14.6025,-396.734,-84.1076
2.66,84.8202,253.144,119.847,44.7902,-6.24359,417.943,-84.4737
2.68,84.9034,252.253,120.741,44.6994,-4.53942,85.2087,-84.8309
2.7,84.9808,251.367,121.631,44.5059,-9.6768,-256.869,-85.175
2.72,85.0528,250.484,122.517,44.3016,-10.2163,-26.976,-85.505
2.74,85.1195,249.601,123.402,44.233,-3.42837,339.398,-85.8273
2.76,85.1811,248.723,124.283,44.053,-8.99881,-278.522,-86.1371
2.78,85.238,247.847,125.16,43.8835,-8.47861,26.0102,-86.435
2.8,85.2901,246.972,126.037,43.8104,-3.65488,241.186,-86.7245
2.82,85.3378,246.099,126.911,43.7024,-5.39942,-87.2268,-87.0066
2.84,85.3811,245.23,127.781,43.5168,-9.27902,-193.98,-87.2753
2.86,85.4204,244.363,128.649,43.3878,-6.44892,141.505,-87.5348
2.88,85.4556,243.498,129.515,43.2961,-4.58608,93.1418,-87.7879
2.9,85.487,242.634,130.379,43.2165,-3.98134,30.2371,-88.0316
2.92,85.5148,241.774,131.24,43.0273,-9.45748,-273.807,-88.2651
2.94,85.5391,240.914,132.1,43.0083,-0.950226,425.363,-88.4937
2.96,85.56,240.057,132.957,42.8576,-7.53422,-329.2,-88.7111
2.98,85.5775,239.202,133.812,42.7625,-4.75533,138.945,-88.9215
3,85.5922,238.341,134.673,43.055,14.6216,968.847,-89.1277
3.02,85.6039,237.465,135.55,43.8214,38.3223,1185.03,-89.3315
3.04,85.6128,236.565,136.45,44.9991,58.886,1028.18,-89.5299
3.06,85.6187,235.628,137.387,46.8411,92.1002,1660.71,-89.7316
3.08,85.6216,234.648,138.367,49.03,109.442,867.085,-89.9325
3.1,85.6209,233.619,139.396,51.452,121.103,583.079,-90.1351
3.12,85.6163,232.541,140.474,53.8773,121.265,8.10182,-90.3396
3.14,85.6076,231.417,141.598,56.2288,117.571,-184.741,-90.5403
3.16,85.5944,230.244,142.771,58.6543,121.275,185.214,-90.7428
3.18,85.5765,229.025,143.99,60.9497,114.773,-325.121,-90.9371
3.2,85.5536,227.758,145.257,63.3376,119.396,231.149,-91.1302
3.22,85.5254,226.446,146.569,65.615,113.868,-276.388,-91.3174
3.24,85.4919,225.086,147.93,68.0297,120.738,343.519,-91.5015
3.26,85.4529,223.682,149.335,70.2317,110.097,-532.053,-91.6738
3.28,85.4083,222.23,150.787,72.6167,119.25,457.665,-91.8406
3.3,85.3581,220.734,152.284,74.8604,112.187,-353.164,-91.9987
3.32,85.3022,219.192,153.827,77.1315,113.552,68.2396,-92.1463
3.34,85.2407,217.605,155.415,79.4212,114.485,46.633,-92.2848
3.36,85.1737,215.974,157.048,81.6297,110.428,-202.822,-92.4118
3.38,85.1013,214.297,158.726,83.9019,113.611,159.133,-92.5245
3.4,85.0238,212.577,160.448,86.1145,110.628,-149.121,-92.626
3.42,84.9415,210.812,162.215,88.3546,112.004,68.7638,-92.7146
3.44,84.8543,209.002,164.027,90.5684,110.694,-65.5063,-92.7883
3.46,84.7631,207.149,165.882,92.7758,110.367,-16.324,-92.8467
3.48,84.6679,205.252,167.782,94.9814,110.282,-4.27196,-92.8897
3.5,84.5695,203.312,169.724,97.133,107.581,-135.006,-92.9171
3.52,84.468,201.327,171.712,99.3747,112.08,224.928,-92.9282
3.54,84.3643,199.299,173.742,101.508,106.67,-270.487,-92.9225
3.56,84.2588,197.228,175.816,103.678,108.514,92.1976,-92.8991
3.58,84.1524,195.113,177.934,105.896,110.898,119.178,-92.858
3.6,84.0457,192.955,180.094,108.017,106.041,-242.861,-92.7995
3.62,83.9395,190.754,182.298,110.183,108.301,113.031,-92.7234
3.64,83.8344,188.509,184.545,112.382,109.939,81.8734,-92.6285
3.66,83.7317,186.225,186.832,114.344,98.1134,-591.265,-92.516
3.68,83.6325,183.909,189.15,115.878,76.7129,-1070.03,-92.3877
3.7,83.5379,181.572,191.489,116.966,54.3857,-1116.36,-92.244
3.72,83.449,179.222,193.841,117.579,30.6514,-1186.72,-92.0869
3.74,83.3665,176.868,196.196,117.778,9.95898,-1034.62,-91.9192
3.76,83.2913,174.515,198.55,117.701,-3.87202,-691.55,-91.7427
3.78,83.2234,172.164,200.902,117.604,-4.82413,-47.6056,-91.5597
3.8,83.1633,169.814,203.253,117.54,-3.21403,80.5052,-91.3726
3.82,83.1109,167.463,205.604,117.56,0.979356,209.669,-91.1839
3.84,83.0661,165.113,207.955,117.513,-2.31341,-164.638,-90.9961
3.86,83.0291,162.761,210.307,117.61,4.83947,357.644,-90.8124
3.88,82.9994,160.408,212.661,117.698,4.38094,-22.9263,-90.6358
3.9,82.9767,158.051,215.017,117.833,6.73744,117.825,-90.4698
3.92,82.9606,155.691,217.378,118.016,9.15604,120.93,-90.318
3.94,82.9504,153.326,219.743,118.248,11.6307,123.733,-90.1841
3.96,82.9452,150.955,222.113,118.538,14.4892,142.927,-90.0724
3.98,82.9442,148.582,224.486,118.636,4.86881,-481.021,-89.9758
4,82.9476,146.221,226.848,118.088,-27.3903,-1612.96,-89.8679
4.02,82.9549,143.874,229.195,117.338,-37.4634,-503.652,-89.7753
4.04,82.9657,141.552,231.517,116.099,-61.9806,-1225.86,-89.6949
4.06,82.9793,139.267,233.802,114.254,-92.2256,-1512.25,-89.6225
4.08,82.9954,137.026,236.043,112.065,-109.444,-860.927,-89.5547
4.1,83.0137,134.833,238.236,109.631,-121.736,-614.573,-89.488
4.12,83.0341,132.688,240.381,107.265,-118.297,171.924,-89.42
4.14,83.0566,130.592,242.477,104.807,-122.886,-229.442,-89.3475
4.16,83.0813,128.546,244.523,102.288,-125.964,-153.889,-89.2696
4.18,83.1082,126.55,246.519,99.8295,-122.915,152.442,-89.1833
4.2,83.1375,124.604,248.465,97.2794,-127.503,-229.429,-89.0892
4.22,83.1692,122.71,250.36,94.7443,-126.758,37.291,-88.9846
4.24,83.2038,120.865,252.205,92.2702,-123.702,152.799,-88.8703
4.26,83.241,119.072,253.999,89.669,-130.061,-317.975,-88.7442
4.28,83.2812,117.329,255.741,87.1395,-126.477,179.186,-88.6079
4.3,83.3244,115.638,257.433,84.5909,-127.428,-47.5243,-88.4599
4.32,83.3707,113.997,259.075,82.0745,-125.822,80.3076,-88.3026
4.34,83.4201,112.408,260.665,79.5024,-128.604,-139.107,-88.1317
4.36,83.4726,110.869,262.205,77.0056,-124.838,188.288,-87.9529
4.38,83.5283,109.381,263.694,74.464,-127.081,-112.151,-87.7627
4.4,83.5868,107.944,265.132,71.9069,-127.854,-38.6403,-87.5637
4.42,83.6482,106.557,266.52,69.4083,-124.929,146.223,-87.3565
4.44,83.7124,105.22,267.859,66.9055,-125.144,-10.7259,-87.1407
4.46,83.7791,103.934,269.147,64.4225,-124.149,49.7583,-86.9178
4.48,83.8481,102.696,270.386,61.9583,-123.209,47.0125,-86.6892
4.5,83.9192,101.51,271.575,59.4411,-125.862,-132.668,-86.4546
4.52,83.992,100.372,272.715,57.0208,-121.016,242.306,-86.2161
4.54,84.0662,99.2826,273.807,54.5723,-122.42,-70.2303,-85.9746
4.56,84.1415,98.2429,274.849,52.1225,-122.493,-3.63109,-85.7292
4.58,84.2176,97.2515,275.844,49.7127,-120.491,100.084,-85.4834
4.6,84.2941,96.3079,276.79,47.3349,-118.889,80.1187,-85.2389
4.62,84.3706,95.4123,277.689,44.9432,-119.585,-34.8155,-84.9951
4.64,84.4466,94.5642,278.541,42.5771,-118.303,64.0923,-84.7525
4.66,84.5223,93.7577,279.351,40.5006,-103.825,723.91,-84.5122
4.68,84.5983,92.9835,280.129,38.8988,-80.0913,1186.7,-84.2733
4.7,84.6751,92.2329,280.883,37.7239,-58.7458,1067.28,-84.0324
4.72,84.7536,91.4976,281.623,36.9749,-37.446,1064.99,-83.7855
4.74,84.8345,90.7686,282.356,36.6704,-15.2288,1110.86,-83.5308
4.76,84.9185,90.0423,283.087,36.5585,-5.59535,481.675,-83.2679
4.78,85.0056,89.3184,283.816,36.4569,-5.07967,25.784,-82.9971
4.8,85.0959,88.5974,284.543,36.3322,-6.23516,-57.7745,-82.7169
4.82,85.1895,87.8794,285.267,36.2031,-6.45194,-10.8391,-82.4268
4.84,85.2864,87.1649,285.988,36.0525,-7.53161,-53.9835,-82.1254
4.86,85.3866,86.4535,286.707,35.919,-6.67191,42.9849,-81.8135
4.88,85.4904,85.7452,287.422,35.7933,-6.28912,19.1393,-81.4923
4.9,85.5979,85.0404,288.135,35.6497,-7.17874,-44.4809,-81.1598
4.92,85.7091,84.3392,288.845,35.4971,-7.63167,-22.6464,-80.8159
4.94,85.824,83.6415,289.552,35.3547,-7.11761,25.7028,-80.4609
4.96,85.9429,82.9478,290.256,35.1916,-8.1567,-51.9543,-80.0936
4.98,86.0655,82.2583,290.957,35.0175,-8.70572,-27.4511,-79.7131
5,86.1922,81.573,291.653,34.8447,-8.63979,3.29648,-79.3191
5.02,86.3231,80.8922,292.347,34.6636,-9.05547,-20.7837,-78.9115
5.04,86.4581,80.2155,293.037,34.5011,-8.12283,46.6316,-78.4915
5.06,86.5976,79.5431,293.724,34.3375,-8.1791,-2.81327,-78.059
5.08,86.7415,78.8751,294.407,34.1628,-8.73312,-27.7008,-77.6129
5.1,86.8896,78.2135,295.085,33.899,-13.1946,-223.073,-77.1467
5.12,87.0422,77.5574,295.758,33.6811,-10.8951,114.972,-76.664
5.14,87.1993,76.9064,296.428,33.4857,-9.76639,56.4376,-76.1666
5.16,87.3614,76.2605,297.094,33.2953,-9.51889,12.3753,-75.6542
5.18,87.5281,75.6202,297.756,33.0846,-10.5393,-51.0214,-75.1262
5.2,87.6997,74.9861,298.413,32.8451,-11.9716,-71.6132,-74.5793
5.22,87.876,74.3587,299.064,32.5848,-13.015,-52.1699,-74.0131
5.24,88.0572,73.7377,299.711,32.3426,-12.1124,45.1294,-73.4279
5.26,88.2434,73.1237,300.353,32.0802,-13.1203,-50.3972,-72.8232
5.28,88.4347,72.5164,300.989,31.8368,-12.1707,47.4815,-72.1993
5.3,88.6308,71.9169,301.62,31.5371,-14.9824,-140.584,-71.553
5.32,88.8319,71.3251,302.245,31.2516,-14.2752,35.359,-70.8844
5.34,89.0381,70.7408,302.865,30.9814,-13.5119,38.1642,-70.1957
5.36,89.2497,70.164,303.479,30.72,-13.0695,22.1214,-69.4865
5.38,89.4666,69.5951,304.088,30.4425,-13.8746,-40.2531,-68.7564
5.4,89.6883,69.0353,304.69,30.1068,-16.7839,-145.468,-68.0009
5.42,89.9152,68.4846,305.286,29.7781,-16.4374,17.3238,-67.22
5.44,90.1472,67.9425,305.876,29.4841,-14.6958,87.081,-66.4165
5.46,90.3843,67.4094,306.459,29.1711,-15.651,-47.7574,-65.5893
5.48,90.6266,66.8858,307.036,28.8466,-16.2278,-28.8407,-64.7373
5.5,90.8736,66.3726,307.605,28.4795,-18.3557,-106.394,-63.8571
5.52,91.1252,65.8695,308.168,28.1237,-17.7885,28.3585,-62.9499
5.54,91.3821,65.3761,308.724,27.8153,-15.4184,118.507,-62.0189
5.56,91.644,64.8925,309.274,27.4966,-15.9338,-25.771,-61.0642
5.58,91.9111,64.4188,309.818,27.1929,-15.1888,37.2502,-60.0857
5.6,92.1827,63.956,310.355,26.8273,-18.2772,-154.422,-59.0794
5.62,92.4588,63.5041,310.884,26.4799,-17.3733,45.1954,-58.0464
5.64,92.7398,63.0623,311.408,26.1799,-14.9994,118.696,-56.9907
5.66,93.0258,62.6307,311.925,25.886,-14.6922,15.3605,-55.9127
5.68,93.3167,62.2093,312.438,25.6058,-14.0111,34.0562,-54.813
5.7,93.6121,61.7989,312.943,25.2806,-16.2595,-112.424,-53.6886
5.72,93.9119,61.3991,313.443,24.9904,-14.5126,87.345,-52.5417
5.74,94.2169,61.0092,313.938,24.7471,-12.1636,117.453,-51.3765
5.76,94.5268,60.6291,314.428,24.5211,-11.2992,43.2185,-50.1942
5.78,94.8419,60.2588,314.915,24.3135,-10.3784,46.0383,-48.9959
5.8,95.1619,59.8985,315.397,24.0926,-11.0481,-33.4807,-47.7806
5.82,95.487,59.5478,315.875,23.9104,-9.10661,97.0719,-46.5516
5.84,95.8177,59.206,316.35,23.7812,-6.46188,132.237,-45.3126
5.86,96.1542,58.873,316.824,23.67,-5.56194,44.9971,-44.0652
5.88,96.4968,58.5487,317.295,23.5872,-4.1376,71.2167,-42.8112
5.9,96.8453,58.2328,317.766,23.5199,-3.3647,38.6452,-41.5522
5.92,97.2004,57.925,318.236,23.4977,-1.11169,112.651,-40.2915
5.94,97.5624,57.6249,318.706,23.5072,0.472994,79.2342,-39.0317
5.96,97.9313,57.3324,319.177,23.5409,1.68787,60.7439,-37.7745
5.98,98.3077,57.0473,319.649,23.6066,3.28484,79.8482,-36.522
6,98.6919,56.7693,320.123,23.7136,5.35033,103.275,-35.2778
6.02,99.0843,56.498,320.6,23.8533,6.98266,81.6167,-34.0445
6.04,99.4851,56.2335,321.08,24.008,7.73552,37.6427,-32.823
6.06,99.8943,55.9757,321.564,24.1854,8.86971,56.71,-31.6146
6.08,100.312,55.7245,322.052,24.3747,9.46783,29.9057,-30.421
6.1,100.74,55.4795,322.544,24.6327,12.8995,171.584,-29.2471
6.12,101.177,55.2406,323.042,24.9098,13.852,47.6252,-28.0942
6.14,101.623,55.008,323.546,25.1657,12.7971,-52.7466,-26.9611
6.16,102.079,54.7818,324.055,25.448,14.1145,65.8722,-25.8493
6.18,102.544,54.5619,324.57,25.741,14.6507,26.8071,-24.76
6.2,103.021,54.3476,325.092,26.1024,18.0679,170.859,-23.6984
6.22,103.507,54.1394,325.621,26.4585,17.8062,-13.0821,-22.6641
6.24,104.003,53.9375,326.156,26.7807,16.1089,-84.8637,-21.6541
6.26,104.509,53.742,326.698,27.1012,16.0274,-4.07741,-20.6688
6.28,105.024,53.5528,327.247,27.4281,16.3429,15.7747,-19.7083
6.3,105.548,53.3696,327.803,27.7956,18.3772,101.717,-18.7776
