"time","x","y","position","velocity","acceleration","jerk","heading"
0,11,85,0,0,0,0,0
0.02,11.1097,85,0.109721,5.48603,274.301,13715.1,0.000842471
0.04,11.2195,85,0.219541,5.49103,0.249999,-13702.6,0.00168494
0.06,11.3293,85,0.329262,5.48603,-0.249999,-24.9999,0.00252741
0.08,11.4391,85,0.439082,5.49103,0.25,25,0.00336988
0.1,11.5488,85,0.548803,5.48603,-0.25,-25,0.00421235
0.12,11.6586,85,0.658623,5.49103,0.250007,25.0003,0.00505483
0.14,11.7683,85,0.768344,5.48603,-0.250007,-25.0007,0.0058973
0.16,11.8782,85,0.878164,5.49103,0.25,25.0003,0.00673977
0.18,11.9879,85,0.987885,5.48603,-0.25,-25,0.00758224
0.2,12.2331,85,1.23309,12.2603,338.712,16948.1,0.0102766
0.22,12.4984,85,1.49837,13.2639,50.1791,-14426.6,0.0132446
0.24,12.7636,85,1.76364,13.2639,-2.31933e-08,-2508.95,0.0162126
0.26,13.0361,85,2.03614,13.6246,18.0393,901.964,0.0196226
0.28,13.3829,85,2.3829,17.3381,185.673,8381.71,0.0274993
0.3,13.7297,85.001,2.72966,17.3382,0.00361259,-9283.49,0.035376
0.32,14.0886,85.001,3.08864,17.9487,30.5273,1526.18,0.0440638
0.34,14.5006,85.001,3.50063,20.5994,132.533,5100.31,0.0562405
0.36,14.9127,85.001,3.91271,20.6044,0.249998,-6614.17,0.0684172
0.38,15.3667,85.002,4.36674,22.7012,104.841,5229.55,0.0845484
0.4,15.8353,85.003,4.83532,23.4291,36.3968,-3422.21,0.10205
0.42,16.334,85.004,5.334,24.9338,75.2333,1941.82,0.123728
0.44,16.8537,85.0051,5.85374,25.9872,52.6682,-1128.25,0.148337
0.46,17.4028,85.0061,6.40285,27.4556,73.4208,1037.63,0.175881
0.48,17.9687,85.0081,6.9687,28.2924,41.8405,-1579.02,0.205081
0.5,18.5719,85.0111,7.57192,30.1612,93.4397,2579.96,0.242959
0.52,19.1892,85.0132,8.18917,30.8625,35.0647,-2918.75,0.283244
0.54,19.8391,85.0172,8.83914,32.4985,81.7988,2336.71,0.327388
0.56,20.5132,85.0213,9.51329,33.7073,60.441,-1067.89,0.377937
0.58,21.2075,85.0254,10.2075,34.712,50.2343,-510.334,0.433429
0.6,21.9333,85.0316,10.9334,36.2911,78.9577,1436.17,0.494916
0.62,22.6847,85.0387,11.6848,37.5714,64.0158,-747.095,0.56289
0.64,23.4588,85.0469,12.459,38.7089,56.8729,-357.144,0.637129
0.66,24.257,85.0562,13.2572,39.9141,60.2596,169.332,0.718221
0.68,25.0847,85.0675,14.085,41.3891,73.7477,674.407,0.805715
0.7,25.94,85.0799,14.9404,42.7689,68.991,-237.835,0.90461
0.72,26.8198,85.0943,15.8203,43.9966,61.3881,-380.144,1.00972
0.74,27.7253,85.1109,16.7259,45.2802,64.1792,139.554,1.12377
0.76,28.657,85.1306,17.6579,46.5965,65.8122,81.6508,1.24802
0.78,29.615,85.1524,18.6161,47.9105,65.7043,-5.3959,1.38084
0.8,30.5998,85.1773,19.6012,49.2561,67.2774,78.6536,1.52453
0.82,31.6116,85.2054,20.6134,50.6126,67.8238,27.3215,1.67952
0.84,32.6501,85.2378,21.6525,51.9507,66.9064,-45.87,1.84427
0.86,33.7167,85.2734,22.7197,53.3597,70.4481,177.084,2.02428
0.88,34.8099,85.3142,23.8136,54.6976,66.897,-177.554,2.21421
0.9,35.931,85.3594,24.9356,56.1011,70.1723,163.767,2.41954
0.92,37.0791,85.4099,26.0848,57.458,67.8461,-116.31,2.63728
0.94,38.2547,85.4658,27.2617,58.8464,69.419,78.6417,2.87016
0.96,39.4574,85.5292,28.466,60.2165,68.5062,-45.6377,3.11672
0.98,40.6879,85.5991,29.6986,61.6265,70.5015,99.7651,3.38126
1,41.9452,85.6766,30.9583,62.9841,67.8787,-131.142,3.66023
1.02,43.2199,85.7607,32.2358,63.8753,44.5615,-1165.86,3.95627
1.04,44.4969,85.8525,33.516,64.0138,6.92651,-1881.75,4.26296
1.06,45.7765,85.9519,34.7995,64.1729,7.95191,51.2698,4.58171
1.08,47.0585,86.0581,36.0859,64.3186,7.28437,-33.3766,4.91166
1.1,48.3432,86.172,37.3756,64.4864,8.39092,55.3276,5.25443
1.12,49.6305,86.2948,38.6687,64.6559,8.47478,4.19272,5.61001
1.14,50.92,86.4255,39.9649,64.8074,7.57717,-44.8803,5.97721
1.16,52.2119,86.5642,41.2642,64.9689,8.07316,24.7995,6.35739
1.18,53.5062,86.713,42.567,65.1401,8.56017,24.3504,6.74989
1.2,54.8027,86.8708,43.8731,65.3042,8.20555,-17.7312,7.15513
1.22,56.1013,87.0388,45.1825,65.4688,8.22955,1.2002,7.57283
1.24,57.4026,87.2172,46.496,65.6728,10.2017,98.6063,8.00612
1.26,58.7055,87.4049,47.8123,65.8157,7.14287,-152.94,8.45061
1.28,60.0105,87.604,49.1325,66.0092,9.67515,126.614,8.90957
1.3,61.3164,87.8145,50.4551,66.1346,6.27191,-170.162,9.37823
1.32,62.6259,88.0369,51.7834,66.4125,13.8944,381.126,9.86791
1.34,63.936,88.2699,53.1141,66.5369,6.2174,-383.851,10.3676
1.36,65.248,88.5158,54.4489,66.7377,10.0405,191.157,10.8826
1.38,66.5609,88.7745,55.787,66.9069,8.46178,-78.9381,11.4101
1.4,67.8754,89.0463,57.1294,67.1174,10.5232,103.071,11.9536
1.42,69.1911,89.3313,58.4756,67.3119,9.72506,-39.9065,12.5126
1.44,70.5075,89.6305,59.8255,67.4966,9.23433,-24.5365,13.0851
1.46,71.8252,89.9442,61.1801,67.7288,11.6133,118.949,13.675
1.48,73.1426,90.2713,62.5375,67.8688,6.99772,-230.78,14.2768
1.5,74.4611,90.6152,63.9001,68.1286,12.9887,299.55,14.8971
1.52,75.7793,90.9728,65.266,68.2964,8.3909,-229.891,15.5316
1.54,77.0976,91.3473,66.6365,68.524,11.3806,149.485,16.1828
1.56,78.4155,91.738,68.011,68.7243,10.0153,-68.2641,16.8494
1.58,79.7323,92.1457,69.3895,68.9261,10.0922,3.84208,17.5309
1.6,81.0485,92.5699,70.7724,69.1447,10.9281,41.7978,18.2298
1.62,82.3631,93.0124,72.1595,69.3538,10.457,-23.5539,18.9438
1.64,83.6766,93.4718,73.5509,69.5747,11.0451,29.4023,19.6759
1.66,84.9876,93.9508,74.9467,69.787,10.6111,-21.6999,20.4227
1.68,86.2959,94.4477,76.3462,69.9745,9.37715,-61.6968,21.1852
1.7,87.6017,94.9638,77.7503,70.2049,11.5177,107.026,21.9649
1.72,88.9039,95.499,79.1582,70.3966,9.58875,-96.4456,22.7598
1.74,90.2027,96.0546,80.5708,70.6307,11.7058,105.853,23.5722
1.76,91.497,96.6307,81.9875,70.8355,10.2367,-73.4542,24.3996
1.78,92.7861,97.2272,83.408,71.0216,9.30405,-46.6334,25.241
1.8,94.0703,97.8436,84.8325,71.2253,10.1867,44.1306,26.0998
1.82,95.3485,98.4827,86.2615,71.4506,11.2644,53.8889,26.973
1.84,96.6201,99.1417,87.6938,71.6148,8.20954,-152.745,27.861
1.86,97.8848,99.8229,89.1302,71.8213,10.3256,105.803,28.7645
1.88,99.141,100.526,90.5697,71.9755,7.71106,-130.727,29.679
1.9,100.389,101.25,92.013,72.1643,9.44139,86.5165,30.6092
1.92,101.629,101.998,93.4603,72.3634,9.95173,25.5169,31.5528
1.94,102.858,102.766,94.91,72.4859,6.12494,-191.34,32.5073
1.96,104.077,103.558,96.3635,72.6763,9.51955,169.731,33.4745
1.98,105.284,104.371,97.8191,72.7814,5.25717,-213.119,34.4517
2,106.48,105.206,99.2771,72.9002,5.94213,34.2482,35.4378
2.02,107.663,106.063,100.738,73.0662,8.29919,117.853,36.4366
2.04,108.832,106.943,102.202,73.1859,5.98285,-115.817,37.4421
2.06,109.987,107.844,103.667,73.2187,1.6429,-216.998,38.455
2.08,111.128,108.766,105.134,73.3636,7.24307,280.008,39.4751
2.1,112.254,109.71,106.603,73.4346,3.54743,-184.782,40.5001
2.12,113.362,110.675,108.072,73.4831,2.42956,-55.8935,41.5302
2.14,114.454,111.659,109.542,73.5089,1.28533,-57.2116,42.5643
2.16,115.529,112.665,111.014,73.5955,4.3316,152.314,43.6005
2.18,116.585,113.689,112.485,73.553,-2.12554,-322.857,44.6382
2.2,117.623,114.732,113.957,73.5868,1.69028,190.791,45.6763
2.22,118.642,115.794,115.429,73.5901,0.166819,-76.1733,46.7137
2.24,119.641,116.874,116.9,73.5651,-1.24902,-70.7922,47.7494
2.26,120.62,117.972,118.371,73.5393,-1.29438,-2.26778,48.7818
2.28,121.578,119.085,119.839,73.425,-5.71452,-221.007,49.8109
2.3,122.515,120.216,121.308,73.4203,-0.2346,273.996,50.8353
2.32,123.431,121.361,122.774,73.3221,-4.90871,-233.706,51.8523
2.34,124.326,122.52,124.239,73.2333,-4.43878,23.4967,52.8636
2.36,125.199,123.694,125.702,73.1309,-5.12083,-34.1026,53.8667
2.38,126.049,124.88,127.161,72.9938,-6.85356,-86.6363,54.8606
2.4,126.878,126.081,128.62,72.933,-3.04352,190.502,55.8466
2.42,127.684,127.291,130.074,72.706,-11.3468,-415.163,56.8201
2.44,128.468,128.513,131.526,72.5964,-5.48061,293.308,57.7824
2.46,129.232,129.746,132.976,72.5056,-4.5414,46.9604,58.7348
2.48,129.971,130.988,134.422,72.2826,-11.1496,-330.408,59.6732
2.5,130.689,132.238,135.864,72.081,-10.0799,53.4816,60.5993
2.52,131.386,133.497,137.303,71.951,-6.50089,178.951,61.5122
2.54,132.06,134.765,138.738,71.7677,-9.16176,-133.043,62.4085
2.56,132.714,136.037,140.169,71.5476,-11.0084,-92.3317,63.2926
2.58,133.345,137.318,141.596,71.3748,-8.63717,118.561,64.162
2.6,133.956,138.603,143.02,71.1741,-10.0359,-69.9367,65.0152
2.62,134.546,139.895,144.44,70.9856,-9.42628,30.4814,65.8537
2.64,135.115,141.19,145.854,70.7329,-12.6359,-160.482,66.6754
2.66,135.665,142.49,147.266,70.6001,-6.63789,299.902,67.4816
2.68,136.194,143.793,148.673,70.3223,-13.8899,-362.6,68.2738
2.7,136.705,145.1,150.076,70.1449,-8.86942,251.024,69.0474
2.72,137.197,146.41,151.475,69.9591,-9.29232,-21.1448,69.8059
2.74,137.669,147.721,152.868,69.6521,-15.3476,-302.765,70.5477
2.76,138.124,149.034,154.258,69.5012,-7.54536,390.113,71.2729
2.78,138.561,150.35,155.644,69.3164,-9.24018,-84.7411,71.9843
2.8,138.98,151.667,157.026,69.0943,-11.1039,-93.1874,72.6771
2.82,139.381,152.983,158.403,68.8342,-13.0053,-95.0705,73.355
2.84,139.767,154.301,159.776,68.6651,-8.45488,227.523,74.0159
2.86,140.137,155.62,161.146,68.4808,-9.21737,-38.1245,74.6617
2.88,140.491,156.939,162.511,68.2558,-11.247,-101.484,75.2924
2.9,140.83,158.256,163.871,68.0324,-11.171,3.80175,75.9066
2.92,141.153,159.574,165.228,67.8349,-9.8784,64.6304,76.5067
2.94,141.462,160.891,166.581,67.6511,-9.18703,34.5686,77.0886
2.96,141.756,162.208,167.93,67.4615,-9.48206,-14.7514,77.6588
2.98,142.038,163.523,169.275,67.2164,-12.2522,-138.509,78.2118
3,142.305,164.837,170.616,67.0693,-7.35804,244.71,78.7517
3.02,142.56,166.15,171.953,66.8643,-10.2463,-144.414,79.2759
3.04,142.802,167.461,173.287,66.6625,-10.0922,7.70628,79.785
3.06,143.032,168.771,174.617,66.496,-8.32651,88.2841,80.2813
3.08,143.25,170.079,175.943,66.3236,-8.61981,-14.6652,80.7627
3.1,143.457,171.386,177.266,66.1512,-8.61953,0.0140249,81.2339
3.12,143.653,172.69,178.585,65.9285,-11.1328,-125.664,81.6852
3.14,143.838,173.992,179.9,65.7689,-7.98145,157.568,82.1266
3.16,144.012,175.292,181.211,65.5753,-9.68197,-85.0261,82.5536
3.18,144.177,176.59,182.52,65.4317,-7.17892,125.152,82.9703
3.2,144.333,177.886,183.825,65.2646,-8.3522,-58.6639,83.3704
3.22,144.478,179.179,185.127,65.0661,-9.92717,-78.7482,83.7593
3.24,144.615,180.471,186.426,64.9533,-5.63738,214.489,84.1349
3.26,144.744,181.76,187.721,64.7684,-9.24888,-180.575,84.4995
3.28,144.863,183.046,189.012,64.5468,-11.0804,-91.5736,84.8501
3.3,144.975,184.33,190.302,64.4776,-3.46026,381.005,85.1902
3.32,145.079,185.611,191.587,64.265,-10.6283,-358.402,85.5163
3.34,145.176,186.891,192.87,64.146,-5.94742,234.044,85.8313
3.36,145.266,188.167,194.149,63.9634,-9.12977,-159.118,86.1343
3.38,145.348,189.433,195.418,63.4231,-27.0155,-894.286,86.4245
3.4,145.422,190.675,196.662,62.2372,-59.2947,-1613.96,86.6982
3.42,145.49,191.888,197.877,60.7469,-74.519,-761.215,86.9547
3.44,145.55,193.073,199.064,59.3388,-70.4026,205.823,87.1966
3.46,145.605,194.23,200.222,57.9159,-71.1436,-37.0506,87.4223
3.48,145.653,195.361,201.354,56.586,-66.4948,232.438,87.6352
3.5,145.696,196.464,202.458,55.1818,-70.2128,-185.901,87.8332
3.52,145.735,197.54,203.534,53.822,-67.9904,111.121,88.0195
3.54,145.771,198.588,204.583,52.4473,-68.734,-37.1776,88.1928
3.56,145.801,199.61,205.606,51.1473,-65.0018,186.608,88.3552
3.58,145.828,200.605,206.601,49.7417,-70.28,-263.909,88.506
3.6,145.852,201.573,207.57,48.4402,-65.0711,260.444,88.6455
3.62,145.874,202.516,208.512,47.1256,-65.7311,-32.9985,88.7764
3.64,145.892,203.432,209.429,45.8247,-65.0453,34.2904,88.896
3.66,145.908,204.322,210.319,44.5265,-64.9088,6.8221,89.0083
3.68,145.922,205.183,211.18,43.0424,-74.2087,-464.997,89.1104
3.7,145.935,206.018,212.015,41.7244,-65.8966,415.609,89.2036
3.72,145.945,206.827,212.824,40.4933,-61.5558,217.037,89.2907
3.74,145.954,207.614,213.612,39.3564,-56.8463,235.475,89.3712
3.76,145.962,208.375,214.372,38.0368,-65.9803,-456.698,89.4426
3.78,145.968,209.104,215.102,36.4678,-78.448,-623.385,89.5088
3.8,145.975,209.811,215.808,35.3341,-56.6869,1088.06,89.5686
3.82,145.979,210.498,216.496,34.3601,-48.7006,399.313,89.6228
3.84,145.983,211.15,217.147,32.5803,-88.9908,-2014.51,89.6709
3.86,145.987,211.78,217.778,31.5292,-52.5515,1821.96,89.7151
3.88,145.989,212.391,218.388,30.5225,-50.3383,110.661,89.755
3.9,145.992,212.966,218.963,28.7402,-89.1118,-1938.67,89.7886
3.92,145.993,213.531,219.528,28.2702,-23.4994,3280.62,89.8207
3.94,145.995,214.051,220.048,26.001,-113.461,-4498.1,89.8475
3.96,145.996,214.567,220.564,25.793,-10.4,5153.07,89.8737
3.98,145.997,215.036,221.033,23.4422,-117.539,-5356.97,89.8922
4,145.998,215.505,221.502,23.4409,-0.0654509,5873.7,89.9106
4.02,145.998,215.922,221.919,20.8477,-129.663,-6479.85,89.9257
4.04,145.999,216.334,222.332,20.6438,-10.1933,5973.46,89.9405
4.06,145.999,216.715,222.713,19.0505,-79.6629,-3473.48,89.952
4.08,145.999,217.063,223.06,17.3534,-84.8562,-259.665,89.9599
4.1,146,217.41,223.407,17.3535,0.00361149,4242.99,89.9678
4.12,146,217.709,223.706,14.9785,-118.747,-5937.54,89.9738
4.14,146,217.974,223.972,13.2615,-85.8508,1644.82,89.9785
4.16,146,218.241,224.238,13.3128,2.56545,4420.81,89.9833
4.18,146,218.506,224.503,13.2615,-2.56545,-256.545,89.988
4.2,146,218.648,224.646,7.12094,-307.029,-15223.2,89.9896
4.22,146,218.758,224.755,5.46178,-82.9581,11203.5,89.9905
4.24,146,218.868,224.865,5.51047,2.43455,4269.63,89.9913
4.26,146,218.977,224.974,5.46047,-2.5,-246.728,89.9921
4.28,146,219.087,225.085,5.51178,2.56545,253.272,89.993
4.3,146,219.196,225.194,5.46047,-2.56545,-256.545,89.9938
4.32,146,219.307,225.304,5.51178,2.56545,256.545,89.9947
4.34,146,219.416,225.413,5.46047,-2.56545,-256.545,89.9955
4.36,146,219.526,225.523,5.51178,2.56545,256.545,89.9964
