"time","x","y","position","velocity","acceleration","jerk","heading"
0,15.1828,30.5368,0,0,0,0,0
0.02,15.1844,30.5368,0.00159787,0.0798933,3.99466,199.733,8.73417e-06
0.04,15.1956,30.5368,0.0127829,0.559253,23.968,998.666,6.98734e-05
0.06,15.2259,30.5368,0.0431424,1.51797,47.936,1198.4,0.000235823
0.08,15.2851,30.5368,0.102263,2.95605,71.904,1198.4,0.000558987
0.1,15.3825,30.5368,0.199733,4.87349,95.872,1198.4,0.00109177
0.12,15.5263,30.5368,0.343541,7.1904,115.845,998.666,0.00187785
0.14,15.7181,30.5368,0.535285,9.5872,119.84,199.734,0.00292595
0.16,15.9578,30.5368,0.774965,11.984,119.84,2.9867e-08,0.00423607
0.18,16.2453,30.5369,1.06251,14.3773,119.664,-8.81353,0.00609684
0.2,16.5805,30.5369,1.39769,16.7591,119.091,-28.653,0.00944623
0.22,16.9636,30.537,1.78076,19.1532,119.708,30.8568,0.0132741
0.24,17.3942,30.5371,2.21137,21.5309,118.883,-41.2215,0.01893
0.26,17.8723,30.5372,2.68947,23.9049,118.7,-9.16202,0.0267139
0.28,18.3977,30.5375,3.2149,26.2712,118.316,-19.2114,0.0372551
0.3,18.9702,30.5379,3.78737,28.6237,117.625,-34.5471,0.0516846
0.32,19.5899,30.5386,4.4071,30.9864,118.133,25.4217,0.0691709
0.34,20.2568,30.5395,5.07399,33.3445,117.906,-11.3692,0.0896768
0.36,20.9666,30.5407,5.7838,35.4906,107.304,-530.105,0.116235
0.38,21.7102,30.5424,6.52744,37.1821,84.5784,-1136.28,0.147989
0.4,22.4786,30.5446,7.29584,38.4199,61.8866,-1134.59,0.183618
0.42,23.2621,30.5473,8.0793,39.1731,37.6615,-1211.25,0.22308
0.44,24.0504,30.5506,8.86764,39.4166,12.1758,-1274.28,0.268813
0.46,24.8383,30.5547,9.65554,39.3951,-1.07715,-662.65,0.318369
0.48,25.6255,30.5594,10.4428,39.3608,-1.71657,-31.9712,0.370751
0.5,26.4116,30.5648,11.2288,39.3032,-2.87522,-57.9326,0.427449
0.52,27.1965,30.5711,12.0138,39.2493,-2.69963,8.77946,0.489003
0.54,27.9808,30.5781,12.7981,39.2162,-1.65372,52.2958,0.553292
0.56,28.7639,30.5862,13.5813,39.1586,-2.87891,-61.2598,0.621924
0.58,29.5461,30.5952,14.3635,39.1093,-2.46439,20.7262,0.695044
0.6,30.3273,30.6051,15.1448,39.0633,-2.29967,8.23624,0.771569
0.62,31.1078,30.6162,15.9253,39.0293,-1.70035,29.966,0.850938
0.64,31.8871,30.6282,16.7048,38.9726,-2.83766,-56.8658,0.935019
0.66,32.6654,30.6416,17.4831,38.9171,-2.77529,3.11854,1.02373
0.68,33.443,30.656,18.2609,38.8864,-1.53402,62.0638,1.11504
0.7,34.2195,30.6718,19.0376,38.8366,-2.48974,-47.7863,1.21012
0.72,34.995,30.6888,19.8133,38.7836,-2.65052,-8.03882,1.30966
0.74,35.7697,30.7071,20.5881,38.7431,-2.02113,31.4696,1.41263
0.76,36.5435,30.727,21.3622,38.7036,-1.97791,2.16083,1.51859
0.78,37.3161,30.7481,22.1351,38.6437,-2.99212,-50.7103,1.6296
0.8,38.0877,30.7708,22.9071,38.5997,-2.20168,39.5217,1.7444
0.82,38.8587,30.7951,23.6784,38.5658,-1.69656,25.2561,1.86178
0.84,39.6288,30.8209,24.449,38.5289,-1.8431,-7.32688,1.98239
0.86,40.3973,30.8483,25.2179,38.4482,-4.03632,-109.661,2.10903
0.88,41.1652,30.8774,25.9864,38.4231,-1.25245,139.193,2.2384
0.9,41.9322,30.9083,26.754,38.3808,-2.11613,-43.1836,2.37072
0.92,42.6983,30.9409,27.5208,38.3406,-2.01292,5.16013,2.50664
0.94,43.4631,30.9753,28.2864,38.2791,-3.07214,-52.9608,2.64752
0.96,44.2271,31.0116,29.0512,38.242,-1.85817,60.6984,2.79143
0.98,44.9901,31.0497,29.8152,38.198,-2.19922,-17.0527,2.93891
1,45.7521,31.0898,30.5782,38.1508,-2.35628,-7.85272,3.0903
1.02,46.513,31.1318,31.3403,38.1052,-2.28322,3.65268,3.24546
1.04,47.2731,31.176,32.1017,38.0674,-1.89049,19.6369,3.40343
1.06,48.0319,31.2222,32.8619,38.0105,-2.84291,-47.6213,3.56618
1.08,48.7896,31.2705,33.6212,37.9652,-2.2682,28.7356,3.73282
1.1,49.5465,31.3209,34.3798,37.9292,-1.79961,23.4298,3.90261
1.12,50.3025,31.3737,35.1375,37.8874,-2.08827,-14.4333,4.07529
1.14,51.0572,31.4286,35.8942,37.8356,-2.58963,-25.0682,4.25247
1.16,51.8106,31.4858,36.6498,37.7792,-2.82068,-11.5523,4.43424
1.18,52.5632,31.5453,37.4047,37.7455,-1.68296,56.8862,4.61874
1.2,53.3147,31.6073,38.1588,37.7044,-2.05817,-18.7608,4.80665
1.22,54.0651,31.6716,38.9119,37.6564,-2.39733,-16.958,4.99856
1.24,54.8142,31.7384,39.664,37.603,-2.67235,-13.7511,5.19462
1.26,55.5623,31.8077,40.4153,37.5658,-1.85973,40.6312,5.39391
1.28,56.3092,31.8796,41.1657,37.5175,-2.41607,-27.8167,5.59701
1.3,57.0549,31.9539,41.9151,37.4736,-2.19139,11.2338,5.804
1.32,57.7995,32.0309,42.6636,37.4246,-2.44907,-12.8839,6.01457
1.34,58.5431,32.1107,43.4115,37.3941,-1.52589,46.1587,6.22811
1.36,59.2852,32.1931,44.1582,37.3347,-2.97202,-72.3063,6.44622
1.38,60.0261,32.2782,44.9039,37.2878,-2.34685,31.2586,6.66833
1.4,60.7658,32.3662,45.6489,37.2463,-2.07399,13.6428,6.89373
1.42,61.5044,32.4569,46.3931,37.2096,-1.83371,12.0139,7.12198
1.44,62.2418,32.5505,47.1363,37.164,-2.27883,-22.2559,7.35401
1.46,62.9775,32.647,47.8783,37.1,-3.19922,-46.0194,7.59133
1.48,63.7121,32.7464,48.6197,37.0667,-1.66713,76.6044,7.83154
1.5,64.4456,32.8489,49.3603,37.0304,-1.81509,-7.39774,8.07459
1.52,65.1778,32.9544,50.1001,36.9888,-2.07751,-13.1209,8.32097
1.54,65.9084,33.0629,50.8387,36.9296,-2.96006,-44.1277,8.57259
1.56,66.6377,33.1744,51.5764,36.8849,-2.23876,36.0649,8.82752
1.58,67.3657,33.2892,52.3134,36.8503,-1.73055,25.4105,9.08518
1.6,68.0923,33.4069,53.0495,36.8074,-2.14033,-20.4891,9.34652
1.62,68.8174,33.5281,53.7847,36.7581,-2.46654,-16.3104,9.612
1.64,69.5411,33.6523,54.5189,36.7123,-2.29322,8.66596,9.88087
1.66,70.2634,33.7799,55.2524,36.6746,-1.88214,20.5539,10.153
1.68,70.9843,33.9107,55.9851,36.6337,-2.04406,-8.09594,10.4288
1.7,71.7036,34.0449,56.7168,36.5848,-2.4466,-20.127,10.7082
1.72,72.4214,34.1825,57.4477,36.5451,-1.98475,23.0929,10.991
1.74,73.1378,34.3234,58.1778,36.5054,-1.98491,-0.00803588,11.2768
1.76,73.8527,34.4678,58.9072,36.4686,-1.83814,7.33855,11.566
1.78,74.566,34.6157,59.6356,36.4195,-2.45904,-31.0453,11.8593
1.8,75.2776,34.767,60.3631,36.3762,-2.16289,14.8076,12.1559
1.82,75.9877,34.9219,61.0899,36.3424,-1.69058,23.6155,12.4552
1.84,76.6964,35.0804,61.8161,36.3085,-1.6966,-0.301134,12.7573
1.86,77.4032,35.2424,62.5412,36.2573,-2.55784,-43.0616,13.0637
1.88,78.1084,35.408,63.2656,36.2182,-1.95599,30.0924,13.3732
1.9,78.812,35.5772,63.9893,36.1827,-1.77556,9.02116,13.6856
1.92,79.5141,35.7502,64.7124,36.1556,-1.35209,21.1738,14.0004
1.94,80.2146,35.9269,65.4348,36.1201,-1.77795,-21.2929,14.318
1.96,80.9128,36.1072,66.1559,36.0589,-3.058,-64.0026,14.6402
1.98,81.6096,36.2914,66.8767,36.0356,-1.16565,94.6176,14.9649
2,82.3048,36.4793,67.5968,36.0063,-1.46261,-14.848,15.2919
2.02,82.9983,36.671,68.3163,35.9771,-1.46422,-0.0804399,15.6212
2.04,83.69,36.8666,69.0351,35.9385,-1.92725,-23.1519,15.9536
2.06,84.3796,37.0659,69.753,35.8937,-2.23907,-15.5908,16.2895
2.08,85.0676,37.2692,70.4703,35.8678,-1.29862,47.0225,16.6277
2.1,85.7539,37.4763,71.1872,35.8452,-1.12737,8.56244,16.9678
2.12,86.4385,37.6874,71.9036,35.8187,-1.32394,-9.82845,17.3102
2.14,87.121,37.9024,72.6192,35.7799,-1.94292,-30.9488,17.6554
2.16,87.8017,38.1212,73.3342,35.7487,-1.5581,19.241,18.0034
2.18,88.4806,38.3442,74.0487,35.728,-1.03455,26.1771,18.3532
2.2,89.1576,38.5711,74.7628,35.7025,-1.27499,-12.0218,18.7048
2.22,89.8329,38.802,75.4765,35.6849,-0.883429,19.5781,19.0582
2.24,90.5061,39.0369,76.1895,35.6491,-1.78945,-45.3012,19.4141
2.26,91.1774,39.2758,76.902,35.6277,-1.06681,36.1323,19.7721
2.28,91.8468,39.5189,77.6142,35.6089,-0.940636,6.30857,20.1316
2.3,92.5143,39.766,78.326,35.5894,-0.974859,-1.71112,20.4924
2.32,93.18,40.0171,79.0375,35.575,-0.72289,12.5984,20.8546
2.34,93.8437,40.2724,79.7486,35.5531,-1.09389,-18.55,21.2187
2.36,94.5053,40.5317,80.4592,35.53,-1.15251,-2.93083,21.5844
2.38,95.1656,40.7951,81.1701,35.545,0.748573,95.054,21.951
2.4,95.8234,41.0627,81.8802,35.5084,-1.83014,-128.936,22.3186
2.42,96.4792,41.3343,82.5901,35.4922,-0.807672,51.1236,22.6871
2.44,97.133,41.6102,83.2997,35.4798,-0.620848,9.34117,23.0568
2.46,97.7848,41.8902,84.0091,35.4701,-0.486363,6.72427,23.4273
2.48,98.4347,42.1743,84.7184,35.4645,-0.282653,10.1855,23.7984
2.5,99.0828,42.4626,85.4276,35.4637,-0.0384375,12.2108,24.17
2.52,99.729,42.755,86.1369,35.4638,0.00400998,2.12238,24.542
2.54,100.372,43.0516,86.8453,35.4222,-2.08059,-104.23,24.9144
2.56,101.015,43.3523,87.5548,35.4713,2.45516,226.788,25.287
2.58,101.655,43.6573,88.2635,35.4381,-1.65704,-205.61,25.6596
2.6,102.293,43.9664,88.9725,35.4498,0.582288,111.967,26.0322
2.62,102.929,44.2796,89.6818,35.4633,0.675387,4.65495,26.4046
2.64,103.563,44.597,90.3905,35.4359,-1.37001,-102.27,26.7768
2.66,104.195,44.9185,91.0997,35.4576,1.08493,122.747,27.1484
2.68,104.825,45.2443,91.8093,35.4819,1.21695,6.60096,27.5195
2.7,105.453,45.5741,92.5185,35.4602,-1.0868,-115.188,27.89
2.72,106.079,45.908,93.2283,35.4879,1.38807,123.743,28.2598
2.74,106.703,46.2462,93.9378,35.4745,-0.670902,-102.948,28.6288
2.76,107.325,46.5884,94.6479,35.5093,1.73826,120.458,28.9964
2.78,107.946,46.9349,95.3589,35.5479,1.9323,9.70195,29.3628
2.8,108.565,47.2853,96.0697,35.5385,-0.472628,-120.246,29.7281
2.82,109.18,47.6399,96.7803,35.532,-0.32351,7.45591,30.0922
2.84,109.795,47.9985,97.4918,35.5729,2.04556,118.453,30.4549
2.86,110.407,48.3612,98.2033,35.577,0.205745,-91.9905,30.8156
2.88,111.018,48.728,98.9158,35.6258,2.44064,111.745,31.1745
2.9,111.626,49.0989,99.6285,35.632,0.308638,-106.6,31.5315
2.92,112.234,49.4738,100.342,35.6761,2.2062,94.8783,31.8869
2.94,112.838,49.8527,101.056,35.6841,0.398233,-90.3985,32.2403
2.96,113.441,50.2355,101.77,35.6935,0.469294,3.55302,32.5915
2.98,114.042,50.6227,102.485,35.7622,3.43726,148.398,32.9401
3,114.647,51.0169,103.207,36.0871,16.2457,640.424,33.2891
3.02,115.262,51.423,103.943,36.8474,38.0133,1088.38,33.6427
3.04,115.892,51.8462,104.703,37.9665,55.9545,897.057,34.0048
3.06,116.548,52.2915,105.495,39.6207,82.7112,1337.84,34.3785
3.08,117.235,52.7643,106.329,41.694,103.662,1047.52,34.7669
3.1,117.953,53.2671,107.206,43.8335,106.977,165.769,35.1708
3.12,118.704,53.8007,108.127,46.0817,112.409,271.594,35.5901
3.14,119.488,54.3659,109.094,48.3245,112.14,-13.4451,36.024
3.16,120.303,54.9634,110.104,50.5208,109.816,-116.221,36.4716
3.18,121.149,55.5947,111.16,52.7901,113.468,182.615,36.9294
3.2,122.027,56.26,112.261,55.064,113.694,11.3149,37.3988
3.22,122.935,56.9602,113.408,57.3359,113.595,-4.9422,37.879
3.24,123.873,57.6965,114.601,59.6228,114.343,37.3754,38.3679
3.26,124.842,58.4699,115.84,61.9787,117.796,172.677,38.862
3.28,125.839,59.2809,117.125,64.2579,113.958,-191.92,39.3634
3.3,126.865,60.1306,118.458,66.6375,118.981,251.147,39.8693
3.32,127.921,61.02,119.838,69.0067,118.462,-25.9394,40.376
3.34,129.004,61.9497,121.266,71.3894,119.132,33.5143,40.885
3.36,130.116,62.9208,122.742,73.7943,120.248,55.8053,41.3932
3.38,131.255,63.9341,124.266,76.2261,121.588,66.9941,41.8972
3.4,132.421,64.9901,125.84,78.6602,121.707,5.9202,42.3987
3.42,133.615,66.0898,127.463,81.173,125.637,196.516,42.8926
3.44,134.837,67.2341,129.137,83.6856,125.629,-0.395347,43.3778
3.46,136.085,68.4233,130.861,86.1907,125.256,-18.6626,43.8533
3.48,137.36,69.6584,132.636,88.7534,128.133,143.868,44.3152
3.5,138.661,70.9395,134.462,91.3205,128.356,11.1558,44.7642
3.52,139.99,72.2676,136.341,93.9299,130.469,105.631,45.1947
3.54,141.346,73.6426,138.272,96.5607,131.544,53.7374,45.608
3.56,142.729,75.0656,140.257,99.2324,133.584,102.013,45.9986
3.58,144.14,76.5361,142.294,101.881,132.441,-57.1305,46.3679
3.6,145.578,78.055,144.386,104.598,135.852,170.517,46.7101
3.62,147.047,79.6216,146.533,107.348,137.468,80.8358,47.027
3.64,148.543,81.2371,148.735,110.122,138.738,63.4784,47.3103
3.66,150.069,82.8976,150.99,112.733,130.509,-411.463,47.5635
3.68,151.616,84.597,153.288,114.911,108.944,-1078.23,47.7807
3.7,153.181,86.3276,155.622,116.656,87.2344,-1085.49,47.9593
3.72,154.759,88.0815,157.981,117.969,65.6237,-1080.53,48.0995
3.74,156.344,89.8512,160.357,118.782,40.6642,-1247.98,48.1978
3.76,157.932,91.6305,162.742,119.265,24.1554,-825.439,48.256
3.78,159.527,93.4186,165.138,119.812,27.3415,159.307,48.2728
3.8,161.128,95.214,167.544,120.277,23.2559,-204.282,48.2485
3.82,162.738,97.0156,169.959,120.794,25.8281,128.61,48.1834
3.84,164.357,98.8222,172.386,121.309,25.759,-3.4546,48.077
3.86,165.987,100.633,174.822,121.807,24.9135,-42.2749,47.9301
3.88,167.629,102.446,177.268,122.31,25.129,10.7736,47.7415
3.9,169.284,104.261,179.724,122.788,23.9116,-60.8722,47.5124
3.92,170.954,106.075,182.19,123.311,26.1377,111.307,47.2412
3.94,172.64,107.889,184.666,123.807,24.8439,-64.6876,46.9297
3.96,174.343,109.7,187.152,124.314,25.3181,23.7058,46.5766
3.98,176.064,111.506,189.647,124.741,21.3813,-196.838,46.1823
4,177.799,113.3,192.143,124.776,1.75029,-981.55,45.749
4.02,179.541,115.074,194.629,124.311,-23.2847,-1251.75,45.2776
4.04,181.282,116.818,197.094,123.24,-53.5497,-1513.25,44.7748
4.06,183.02,118.526,199.53,121.806,-71.6762,-906.326,44.2392
4.08,184.744,120.189,201.925,119.778,-101.416,-1486.98,43.6798
4.1,186.454,121.806,204.278,117.646,-106.594,-258.928,43.0972
4.12,188.149,123.375,206.588,115.479,-108.362,-88.3843,42.4954
4.14,189.828,124.896,208.854,113.316,-108.127,11.7534,41.8748
4.16,191.49,126.371,211.076,111.103,-110.652,-126.234,41.2402
4.18,193.135,127.797,213.253,108.829,-113.711,-152.964,40.5922
4.2,194.761,129.174,215.384,106.54,-114.435,-36.2109,39.9358
4.22,196.367,130.503,217.469,104.262,-113.894,27.0763,39.2702
4.24,197.953,131.784,219.508,101.933,-116.46,-128.306,38.6012
4.26,199.517,133.018,221.499,99.5787,-117.724,-63.2196,37.9275
4.28,201.056,134.203,223.442,97.143,-121.783,-202.955,37.2542
4.3,202.571,135.341,225.337,94.7302,-120.641,57.0978,36.583
4.32,204.06,136.432,227.183,92.2973,-121.648,-50.3314,35.9149
4.34,205.52,137.479,228.979,89.8311,-123.309,-83.049,35.2526
4.36,206.953,138.478,230.726,87.3286,-125.124,-90.7547,34.5976
4.38,208.354,139.434,232.422,84.8197,-125.443,-15.9395,33.9516
4.4,209.724,140.345,234.067,82.2608,-127.948,-125.236,33.3172
4.42,211.062,141.214,235.662,79.7552,-125.278,133.485,32.6942
4.44,212.365,142.041,237.206,77.1831,-128.605,-166.345,32.0853
4.46,213.634,142.827,238.699,74.6216,-128.079,26.2988,31.4912
4.48,214.865,143.573,240.138,71.9671,-132.721,-232.132,30.9131
4.5,216.059,144.28,241.525,69.3772,-129.495,161.307,30.3519
4.52,217.214,144.95,242.861,66.7869,-129.517,-1.09413,29.8088
4.54,218.331,145.582,244.144,64.1516,-131.766,-112.437,29.2844
4.56,219.406,146.179,245.374,61.4772,-133.719,-97.6487,28.7792
4.58,220.44,146.741,246.551,58.8637,-130.673,152.318,28.2941
4.6,221.432,147.27,247.675,56.2043,-132.969,-114.836,27.8296
4.62,222.381,147.766,248.746,53.5464,-132.895,3.71606,27.3861
4.64,223.287,148.231,249.764,50.9144,-131.603,64.6208,26.9636
4.66,224.155,148.669,250.736,48.6015,-115.644,797.907,26.56
4.68,224.993,149.085,251.672,46.7895,-90.5991,1252.27,26.1711
4.7,225.811,149.483,252.582,45.503,-64.3266,1313.62,25.7925
4.72,226.618,149.87,253.477,44.7391,-38.1968,1306.49,25.42
4.74,227.424,150.249,254.368,44.5408,-9.91378,1414.15,25.0495
4.76,228.232,150.624,255.258,44.5001,-2.03492,393.943,24.6791
4.78,229.042,150.993,256.148,44.5074,0.365524,120.022,24.309
4.8,229.855,151.357,257.039,44.557,2.48137,105.792,23.9393
4.82,230.67,151.716,257.929,44.5154,-2.08107,-228.122,23.5701
4.84,231.486,152.069,258.819,44.4785,-1.84662,11.7227,23.2016
4.86,232.305,152.417,259.709,44.483,0.228936,103.778,22.8338
4.88,233.127,152.759,260.599,44.5145,1.57328,67.2173,22.4668
4.9,233.95,153.096,261.488,44.4531,-3.07297,-232.313,22.1008
4.92,234.774,153.429,262.377,44.4594,0.319169,169.607,21.7357
4.94,235.601,153.755,263.266,44.4426,-0.844245,-58.1707,21.372
4.96,236.43,154.076,264.155,44.4275,-0.753649,4.52977,21.0097
4.98,237.26,154.393,265.043,44.4357,0.40896,58.1305,20.6485
5,238.091,154.702,265.93,44.3571,-3.92633,-216.765,20.2889
5.02,238.925,155.007,266.818,44.3645,0.370571,214.845,19.9307
5.04,239.76,155.308,267.705,44.3659,0.0656874,-15.2442,19.5745
5.06,240.596,155.602,268.592,44.3376,-1.41201,-73.885,19.2201
5.08,241.434,155.891,269.478,44.2995,-1.90388,-24.5935,18.8673
5.1,242.273,156.175,270.364,44.305,0.271827,108.785,18.5165
5.12,243.113,156.454,271.249,44.2496,-2.76674,-151.928,18.1676
5.14,243.954,156.727,272.134,44.2349,-0.736571,101.509,17.8213
5.16,244.797,156.995,273.018,44.2269,-0.402101,16.7235,17.4772
5.18,245.64,157.258,273.901,44.1424,-4.22219,-191.004,17.1351
5.2,246.486,157.516,274.785,44.1999,2.87275,354.747,16.7952
5.22,247.331,157.768,275.667,44.0946,-5.26551,-406.913,16.458
5.24,248.177,158.015,276.549,44.0867,-0.394265,243.562,16.1235
5.26,249.024,158.258,277.43,44.0462,-2.02278,-81.4256,15.7917
5.28,249.873,158.494,278.311,44.0488,0.13096,107.687,15.462
5.3,250.721,158.726,279.19,43.9626,-4.31216,-222.156,15.135
5.32,251.57,158.954,280.069,43.9665,0.197216,225.469,14.8113
5.34,252.42,159.176,280.947,43.9143,-2.61064,-140.393,14.4906
5.36,253.27,159.393,281.825,43.881,-1.66792,47.1359,14.1725
5.38,254.121,159.606,282.702,43.8499,-1.55374,5.70942,13.8569
5.4,254.973,159.814,283.579,43.866,0.805772,117.975,13.544
5.42,255.825,160.016,284.454,43.7525,-5.67754,-324.166,13.2356
5.44,256.676,160.214,285.329,43.7212,-1.56505,205.625,12.93
5.46,257.529,160.407,286.203,43.6934,-1.38976,8.76465,12.627
5.48,258.381,160.596,287.076,43.6666,-1.33665,2.65541,12.3266
5.5,259.234,160.78,287.948,43.6158,-2.54325,-60.3304,12.03
5.52,260.087,160.959,288.82,43.5821,-1.68121,43.1024,11.7376
5.54,260.94,161.134,289.691,43.5586,-1.17745,25.1879,11.4478
5.56,261.793,161.305,290.561,43.4859,-3.63693,-122.974,11.1607
5.58,262.647,161.471,291.431,43.5003,0.720363,217.865,10.8765
5.6,263.5,161.633,292.299,43.4166,-4.18086,-245.061,10.5976
5.62,264.353,161.79,293.166,43.3339,-4.13797,2.14478,10.3217
5.64,265.206,161.943,294.033,43.3648,1.5434,284.068,10.0484
5.66,266.059,162.093,294.899,43.2971,-3.3843,-246.385,9.7785
5.68,266.912,162.237,295.764,43.2648,-1.61233,88.5989,9.51249
5.7,267.765,162.378,296.628,43.1839,-4.04466,-121.617,9.2504
5.72,268.617,162.515,297.491,43.1717,-0.612668,171.6,8.99138
5.74,269.469,162.648,298.353,43.0993,-3.62144,-150.439,8.73573
5.76,270.321,162.777,299.215,43.0802,-0.953023,133.421,8.48382
5.78,271.173,162.902,300.076,43.0541,-1.30484,-17.5909,8.23568
5.8,272.024,163.023,300.936,42.994,-3.00344,-84.9298,7.9907
5.82,272.874,163.141,301.795,42.9294,-3.23248,-11.4521,7.7493
5.84,273.725,163.255,302.653,42.9002,-1.45713,88.7676,7.51213
5.86,274.574,163.365,303.509,42.8367,-3.17897,-86.092,7.27856
5.88,275.424,163.472,304.366,42.8344,-0.11504,153.196,7.04768
5.9,276.273,163.575,305.221,42.7698,-3.22862,-155.679,6.82008
5.92,277.122,163.675,306.076,42.739,-1.53825,84.5182,6.59809
5.94,277.97,163.771,306.93,42.6784,-3.03101,-74.6379,6.37918
5.96,278.818,163.864,307.782,42.6297,-2.43635,29.7333,6.1629
5.98,279.666,163.955,308.635,42.6323,0.133824,128.509,5.94959
6,280.511,164.041,309.485,42.49,-7.1161,-362.496,5.74216
6.02,281.357,164.125,310.335,42.4914,0.0690336,359.256,5.53787
6.04,282.203,164.205,311.185,42.4946,0.161468,4.62174,5.3362
6.06,283.048,164.283,312.033,42.4355,-2.95822,-155.984,5.13823
6.08,283.891,164.357,312.88,42.3163,-5.95831,-150.004,4.94484
6.1,284.736,164.428,313.727,42.3622,2.29295,412.563,4.7548
6.12,285.578,164.497,314.572,42.268,-4.70587,-349.941,4.56771
6.14,286.421,164.563,315.417,42.2554,-0.63246,203.671,4.38508
6.16,287.261,164.626,316.26,42.1462,-5.45771,-241.263,4.20636
6.18,288.102,164.686,317.103,42.1514,0.258614,285.816,4.0304
6.2,288.942,164.744,317.945,42.1079,-2.17648,-121.755,3.85743
6.22,289.782,164.8,318.787,42.0802,-1.38608,39.52,3.69026
6.24,290.62,164.852,319.627,41.9827,-4.87121,-174.256,3.52619
6.26,291.458,164.903,320.467,41.9945,0.588597,272.99,3.36474
6.28,292.295,164.951,321.305,41.9029,-4.57931,-258.395,3.20622
6.3,293.131,164.997,322.142,41.8722,-1.53601,152.165,3.05384
6.32,293.967,165.04,322.979,41.8295,-2.13324,-29.8619,2.9043
6.34,294.801,165.082,323.815,41.793,-1.82476,15.4245,2.75754
6.36,295.635,165.12,324.649,41.7392,-2.69447,-43.4859,2.6146
