"time","x","y","position","velocity","acceleration","jerk","heading"
0,66.1024,177.81,0,0,0,0,0
0.02,66.1044,177.81,0.00200307,0.100153,5.00767,250.384,-1.01966e-05
0.04,66.1184,177.81,0.0160246,0.701074,30.046,1251.92,-8.15727e-05
0.06,66.1565,177.81,0.0540829,1.90292,60.0921,1502.3,-0.000275308
0.08,66.2306,177.81,0.128196,3.70568,90.1381,1502.3,-0.000652582
0.1,66.3508,177.81,0.248381,6.00921,115.177,1251.92,-0.00126438
0.12,66.519,177.81,0.416639,8.41289,120.184,250.383,-0.00212089
0.14,66.7354,177.81,0.63297,10.8166,120.184,0.000301044,-0.00322212
0.16,66.9998,177.81,0.897375,13.2203,120.184,-3.71486e-08,-0.00456807
0.18,67.3127,177.81,1.21031,15.6465,121.314,56.4776,-0.00765946
0.2,67.674,177.81,1.57164,18.0667,121.01,-15.2036,-0.0120923
0.22,68.0836,177.81,1.98115,20.4756,120.445,-28.2437,-0.0171161
0.24,68.5422,177.81,2.43976,22.9303,122.734,114.468,-0.0257725
0.26,69.0491,177.809,2.9467,25.3469,120.829,-95.2664,-0.0355268
0.28,69.6053,177.809,3.50292,27.8114,123.224,119.77,-0.0495681
0.3,70.2103,177.808,4.10786,30.2468,121.774,-72.5292,-0.0659631
0.32,70.8648,177.807,4.76243,32.7284,124.08,115.303,-0.0877786
0.34,71.5689,177.806,5.46655,35.2058,123.869,-10.5215,-0.114735
0.36,72.3226,177.805,6.22025,37.6853,123.971,5.10731,-0.146968
0.38,73.1261,177.802,7.02374,40.1745,124.463,24.5825,-0.185114
0.4,73.9798,177.799,7.87745,42.6854,125.543,53.9779,-0.230625
0.42,74.8837,177.795,8.7813,45.1926,125.364,-8.94955,-0.28325
0.44,75.8381,177.79,9.73573,47.7212,126.426,53.1125,-0.344398
0.46,76.8434,177.784,10.7411,50.2679,127.336,45.4975,-0.415276
0.48,77.8998,177.775,11.7975,52.8192,127.565,11.4349,-0.496162
0.5,79.0072,177.764,12.9049,55.3719,127.639,3.71349,-0.587446
0.52,80.1659,177.752,14.0637,57.9411,128.456,40.8716,-0.689939
0.54,81.3765,177.736,15.2744,60.5342,129.657,60.0553,-0.805157
0.56,82.6397,177.717,16.5378,63.168,131.69,101.623,-0.935734
0.58,83.955,177.694,17.8532,65.7735,130.273,-70.8289,-1.08015
0.6,85.3226,177.666,19.2211,68.3932,130.987,35.6833,-1.23921
0.62,86.7432,177.633,20.6421,71.0513,132.905,95.9189,-1.41509
0.64,88.2172,177.594,22.1166,73.7259,133.728,41.1125,-1.60951
0.66,89.7445,177.548,23.6446,76.3993,133.673,-2.70443,-1.82217
0.68,91.3258,177.495,25.2268,79.109,135.481,90.4022,-2.05507
0.7,92.9606,177.433,26.8628,81.8006,134.58,-45.0683,-2.30782
0.72,94.6499,177.36,28.5537,84.5437,137.159,128.948,-2.58282
0.74,96.3938,177.277,30.2996,87.2935,137.486,16.3708,-2.88137
0.76,98.1921,177.182,32.1003,90.0371,137.181,-15.2735,-3.20277
0.78,100.045,177.073,33.9563,92.7988,138.087,45.3006,-3.54836
0.8,101.952,176.949,35.8673,95.5522,137.67,-20.8329,-3.9185
0.82,103.914,176.807,37.8348,98.3724,141.006,166.78,-4.31262
0.84,105.93,176.648,39.8564,101.08,135.373,-281.658,-4.73024
0.86,107.998,176.469,41.9331,103.834,137.713,117.027,-5.17004
0.88,110.119,176.269,44.0632,106.509,133.763,-197.538,-5.6297
0.9,112.291,176.045,46.2463,109.15,132.053,-85.4545,-6.10558
0.92,114.511,175.798,48.4806,111.72,128.456,-179.873,-6.59242
0.94,116.779,175.526,50.7647,114.202,124.115,-217.065,-7.08361
0.96,119.091,175.229,53.0952,116.528,116.287,-391.379,-7.57073
0.98,121.443,174.906,55.4692,118.7,108.603,-384.225,-8.04347
1,123.832,174.559,57.8837,120.726,101.324,-363.954,-8.48793
1.02,126.251,174.189,60.3306,122.344,80.8756,-1022.4,-8.8901
1.04,128.685,173.8,62.7955,123.244,44.9982,-1793.87,-9.2335
1.06,131.118,173.398,65.2617,123.312,3.41654,-2079.08,-9.50026
1.08,133.536,172.989,67.7142,122.624,-34.3885,-1890.25,-9.67927
1.1,135.925,172.579,70.1384,121.208,-70.8207,-1821.61,-9.76084
1.12,138.285,172.173,72.5323,119.696,-75.5965,-238.788,-9.74141
1.14,140.615,171.775,74.896,118.184,-75.5713,1.25816,-9.62326
1.16,142.908,171.39,77.2215,116.278,-95.3163,-987.249,-9.40911
1.18,145.159,171.022,79.5024,114.045,-111.661,-817.247,-9.11319
1.2,147.357,170.676,81.7278,111.269,-138.807,-1357.27,-8.74779
1.22,149.5,170.354,83.8945,108.334,-146.725,-395.908,-8.32988
1.24,151.586,170.057,86.0017,105.362,-148.626,-95.033,-7.87771
1.26,153.622,169.784,88.0554,102.687,-133.745,744.004,-7.40353
1.28,155.608,169.534,90.0571,100.083,-130.166,178.97,-6.9182
1.3,157.548,169.307,92.0108,97.6858,-119.881,514.236,-6.43158
1.32,159.445,169.101,93.9185,95.3848,-115.048,241.647,-5.95213
1.34,161.299,168.916,95.782,93.1736,-110.561,224.353,-5.48568
1.36,163.112,168.748,97.6031,91.0528,-106.041,226.007,-5.03647
1.38,164.885,168.599,99.3816,88.9285,-106.216,-8.75602,-4.60749
1.4,166.617,168.466,101.119,86.8632,-103.263,147.66,-4.20146
1.42,168.31,168.348,102.816,84.8618,-100.071,159.618,-3.81899
1.44,169.962,168.243,104.472,82.7786,-104.157,-204.302,-3.46031
1.46,171.575,168.149,106.088,80.7969,-99.0856,253.563,-3.12511
1.48,173.147,168.068,107.661,78.6721,-106.24,-357.701,-2.81363
1.5,174.679,167.997,109.195,76.6921,-99.0022,361.872,-2.52501
1.52,176.169,167.935,110.686,74.5495,-107.131,-406.46,-2.25797
1.54,177.618,167.88,112.137,72.53,-100.974,307.846,-2.01395
1.56,179.025,167.834,113.544,70.397,-106.647,-283.62,-1.78851
1.58,180.392,167.793,114.911,68.3404,-102.832,190.763,-1.58321
1.6,181.714,167.76,116.234,66.1343,-110.304,-373.605,-1.39469
1.62,182.995,167.73,117.515,64.0547,-103.98,316.195,-1.22441
1.64,184.232,167.705,118.753,61.8984,-107.817,-191.864,-1.07064
1.66,185.426,167.685,119.947,59.7081,-109.513,-84.7874,-0.931085
1.68,186.575,167.667,121.096,57.4578,-112.514,-150.082,-0.804936
1.7,187.681,167.653,122.202,55.3004,-107.871,232.189,-0.691706
1.72,188.743,167.641,123.265,53.1087,-109.587,-85.795,-0.59242
1.74,189.761,167.631,124.282,50.8703,-111.919,-116.632,-0.50393
1.76,190.733,167.624,125.254,48.6192,-112.557,-31.892,-0.425381
1.78,191.66,167.618,126.181,46.356,-113.158,-30.0422,-0.355966
1.8,192.542,167.612,127.063,44.0851,-113.546,-19.3804,-0.295123
1.82,193.379,167.608,127.9,41.833,-112.607,46.9421,-0.244138
1.84,194.169,167.605,128.691,39.5378,-114.757,-107.532,-0.200131
1.86,194.914,167.603,129.435,37.229,-115.441,-34.179,-0.162191
1.88,195.612,167.601,130.133,34.9071,-116.096,-32.7642,-0.129437
1.9,196.264,167.6,130.785,32.5953,-115.591,25.2727,-0.102548
1.92,196.869,167.599,131.39,30.2637,-116.576,-49.2716,-0.0802077
1.94,197.427,167.598,131.949,27.9142,-117.476,-45.0121,-0.06122
1.96,197.939,167.598,132.461,25.596,-115.912,78.23,-0.0476668
1.98,198.404,167.597,132.925,23.2231,-118.643,-136.546,-0.0359133
2,198.821,167.597,133.343,20.8761,-117.352,64.5299,-0.0276813
2.02,199.191,167.597,133.713,18.4981,-118.897,-77.2522,-0.0209145
2.04,199.514,167.597,134.035,16.1145,-119.18,-14.1465,-0.015237
2.06,199.789,167.597,134.31,13.7539,-118.033,57.365,-0.0121731
2.08,200.016,167.597,134.537,11.3619,-119.599,-78.3089,-0.00964198
2.1,200.195,167.597,134.717,8.96992,-119.599,0.00414041,-0.00764375
2.12,200.327,167.597,134.848,6.57794,-119.599,-0.000752261,-0.00617839
2.14,200.412,167.597,134.933,4.23582,-117.106,124.647,-0.00523651
2.16,200.457,167.597,134.979,2.29233,-97.1744,996.58,-0.00472724
2.18,200.476,167.597,134.998,0.946846,-67.2744,1495,-0.00451771
2.2,200.48,167.597,135.002,0.199352,-37.3747,1494.99,-0.00447469
