"time","x","y","position","velocity","acceleration","jerk","heading"
0,201.463,172.039,0,0,0,0,180
0.02,201.461,172.039,0.00213333,0.32,32,1600,180
0.04,201.446,172.039,0.0170667,1.28,64,1600,180
0.06,201.405,172.039,0.0576,2.88,96,1600,179.999
0.08,201.328,172.039,0.135104,4.875,100,200,179.998
0.1,201.21,172.039,0.252604,6.875,100,0,179.997
0.12,201.053,172.039,0.410104,8.875,100,0,179.994
0.14,200.855,172.039,0.607604,10.875,100,0,179.992
0.16,200.618,172.039,0.845104,12.875,100,0,179.988
0.18,200.34,172.039,1.1226,14.875,100,0,179.982
0.2,200.023,172.04,1.4401,16.875,100,0,179.97
0.22,199.665,172.04,1.7976,18.875,100,0,179.957
0.24,199.268,172.04,2.1951,20.875,100,0,179.939
0.26,198.83,172.041,2.6326,22.875,100,0,179.913
0.28,198.353,172.041,3.1101,24.875,100,0,179.883
0.3,197.835,172.043,3.6276,26.875,100,0,179.841
0.32,197.278,172.044,4.1851,28.875,100,0,179.792
0.34,196.68,172.047,4.7826,30.875,100,0,179.731
0.36,196.043,172.05,5.4201,32.875,100,0,179.656
0.38,195.365,172.055,6.0976,34.875,100,0,179.57
0.4,194.648,172.061,6.8151,36.875,100,0,179.465
0.42,193.89,172.068,7.5726,38.875,100,0,179.341
0.44,193.093,172.079,8.3701,40.875,100,0,179.197
0.46,192.255,172.091,9.2076,42.875,100,0,179.03
0.48,191.378,172.108,10.0851,44.875,100,0,178.839
0.5,190.461,172.128,11.0026,46.875,100,0,178.62
0.52,189.504,172.153,11.9601,48.875,100,0,178.37
0.54,188.507,172.184,12.9576,50.875,100,0,178.087
0.56,187.47,172.221,13.9951,52.875,100,0,177.768
0.58,186.393,172.266,15.0726,54.875,100,0,177.408
0.6,185.277,172.321,16.1901,56.875,100,0,177.003
0.62,184.121,172.386,17.3476,58.875,100,0,176.548
0.64,182.926,172.463,18.5451,60.875,100,0,176.039
0.66,181.692,172.554,19.7826,62.875,100,0,175.472
0.68,180.419,172.662,21.0601,64.875,100,0,174.842
0.7,179.108,172.788,22.3776,66.875,100,0,174.136
0.72,177.758,172.936,23.7351,68.875,100,0,173.356
0.74,176.372,173.108,25.1326,70.875,100,0,172.491
0.76,174.948,173.307,26.5701,72.875,100,0,171.528
0.78,173.489,173.538,28.0476,74.875,100,0,170.468
0.8,171.995,173.804,29.5651,76.875,100,0,169.279
0.82,170.468,174.111,31.1226,78.875,100,0,167.984
0.84,168.909,174.462,32.7201,80.875,100,0,166.552
0.86,167.322,174.864,34.3576,82.875,100,0,164.983
0.88,165.708,175.322,36.0351,84.875,100,0,163.273
0.9,164.072,175.843,37.7526,86.875,100,0,161.397
0.92,162.416,176.432,39.5101,88.875,100,0,159.357
0.94,160.746,177.097,41.3076,90.875,100,0,157.167
0.96,159.068,177.844,43.1451,92.875,100,0,154.83
0.98,157.386,178.679,45.0226,94.875,100,0,152.359
1,155.708,179.606,46.9401,96.875,100,-3.55271e-11,149.766
1.02,154.042,180.63,48.8955,98.555,68,-1600,147.093
1.04,152.404,181.746,50.878,99.595,36,-1600,144.392
1.06,150.808,182.946,52.875,99.995,4,-1600,141.717
1.08,149.267,184.221,54.875,100,0,-200,139.121
1.1,147.784,185.563,56.875,100,0,0,136.639
1.12,146.359,186.966,58.875,100,0,0,134.315
1.14,144.99,188.423,60.875,100,0,0,132.154
1.16,143.674,189.93,62.875,100,0,0,130.167
1.18,142.409,191.479,64.875,100,0,0,128.359
1.2,141.192,193.065,66.875,100,0,0,126.733
1.22,140.017,194.684,68.875,100,0,0,125.283
1.24,138.881,196.33,70.875,100,0,0,124.003
1.26,137.779,197.999,72.875,100,0,0,122.884
1.28,136.708,199.688,74.875,100,0,0,121.917
1.3,135.663,201.393,76.875,100,0,0,121.092
1.32,134.641,203.113,78.875,100,0,0,120.398
1.34,133.638,204.843,80.875,100,0,0,119.824
1.36,132.651,206.582,82.875,100,0,0,119.359
1.38,131.676,208.329,84.875,100,0,0,118.998
1.4,130.711,210.08,86.875,100,0,0,118.73
1.42,129.753,211.836,88.875,100,0,0,118.546
1.44,128.799,213.594,90.875,100,0,0,118.44
1.46,127.847,215.353,92.875,100,0,0,118.406
1.48,126.896,217.112,94.875,100,0,0,118.436
1.5,125.942,218.87,96.875,100,0,0,118.525
1.52,124.985,220.626,98.875,100,0,0,118.668
1.54,124.023,222.379,100.875,100,0,0,118.863
1.56,123.054,224.129,102.875,100,0,0,119.103
1.58,122.077,225.874,104.875,100,0,0,119.384
1.6,121.091,227.614,106.875,100,0,0,119.701
1.62,120.095,229.349,108.875,100,0,0,120.053
1.64,119.088,231.076,110.875,100,0,0,120.435
1.66,118.069,232.797,112.875,100,0,0,120.844
1.68,117.037,234.511,114.875,100,0,0,121.277
1.7,115.992,236.216,116.875,100,0,0,121.73
1.72,114.933,237.913,118.875,100,0,0,122.202
1.74,113.86,239.6,120.875,100,0,0,122.688
1.76,112.773,241.279,122.875,100,0,0,123.186
1.78,111.671,242.948,124.875,100,0,0,123.694
1.8,110.554,244.607,126.875,100,0,0,124.207
1.82,109.422,246.256,128.875,100,0,0,124.724
1.84,108.275,247.894,130.875,100,0,0,125.31
1.86,107.11,249.52,132.875,100,0,0,125.934
1.88,105.928,251.133,134.875,100,0,0,126.506
1.9,104.73,252.735,136.875,100,0,0,127.031
1.92,103.519,254.326,138.875,100,0,0,127.525
1.94,102.294,255.908,140.875,100,0,0,127.991
1.96,101.057,257.479,142.875,100,0,0,128.436
1.98,99.8076,259.041,144.875,100,0,0,128.869
2,98.5467,260.593,146.875,100,0,0,129.294
2.02,97.2744,262.136,148.875,100,0,0,129.721
2.04,95.9905,263.67,150.875,100,0,0,130.156
2.06,94.6948,265.193,152.875,100,0,0,130.608
2.08,93.3869,266.706,154.875,100,0,0,131.083
2.1,92.066,268.208,156.875,100,0,0,131.592
2.12,90.7313,269.698,158.875,100,0,0,132.146
2.14,89.3817,271.174,160.875,100,0,0,132.753
2.16,88.0158,272.635,162.875,100,0,0,133.422
2.18,86.632,274.079,164.875,100,0,0,134.164
2.2,85.2286,275.503,166.875,100,0,0,134.99
2.22,83.8037,276.907,168.875,100,0,0,135.913
2.24,82.355,278.286,170.875,100,0,0,136.952
2.26,80.8802,279.637,172.875,100,0,0,138.105
2.28,79.3772,280.956,174.875,100,0,0,139.382
2.3,77.8435,282.24,176.875,100,0,0,140.798
2.32,76.2772,283.483,178.875,100,0,0,142.354
2.34,74.6762,284.682,180.875,100,0,0,144.041
2.36,73.0394,285.831,182.875,100,0,0,145.86
2.38,71.3657,286.925,184.875,100,0,0,147.798
2.4,69.655,287.961,186.875,100,-1.74715e-05,-0.000873573,149.827
2.42,67.9099,288.934,188.873,99.68,-32,-1600,151.931
2.44,66.1414,289.835,190.858,98.72,-64,-1600,154.061
2.46,64.364,290.66,192.817,97.12,-96,-1600,156.174
2.48,62.5917,291.404,194.74,95.125,-100,-199.999,158.224
2.5,60.8318,292.072,196.622,93.125,-100,0,160.19
2.52,59.0884,292.668,198.465,91.125,-100,0,162.048
2.54,57.3654,293.197,200.267,89.125,-100,0,163.786
2.56,55.6661,293.665,202.03,87.125,-100,0,165.41
2.58,53.9936,294.077,203.752,85.125,-100,0,166.889
2.6,52.3505,294.438,205.435,83.125,-100,0,168.253
2.62,50.7388,294.755,207.077,81.125,-100,0,169.501
2.64,49.1603,295.031,208.68,79.125,-100,0,170.625
2.66,47.6164,295.271,210.242,77.125,-100,0,171.653
2.68,46.1082,295.48,211.765,75.125,-100,0,172.578
2.7,44.6368,295.66,213.247,73.125,-100,0,173.409
2.72,43.2027,295.816,214.69,71.125,-100,0,174.163
2.74,41.8066,295.95,216.092,69.125,-100,0,174.839
2.76,40.449,296.065,217.455,67.125,-100,0,175.448
2.78,39.1302,296.163,218.777,65.125,-100,0,175.997
2.8,37.8504,296.247,220.06,63.125,-100,0,176.482
2.82,36.61,296.318,221.302,61.125,-100,0,176.922
2.84,35.409,296.379,222.505,59.125,-100,0,177.311
2.86,34.2476,296.429,223.667,57.125,-100,0,177.662
2.88,33.1259,296.472,224.79,55.125,-100,0,177.974
2.9,32.044,296.507,225.872,53.125,-100,0,178.251
2.92,31.0019,296.537,226.915,51.125,-100,0,178.497
2.94,29.9997,296.561,227.917,49.125,-100,0,178.715
2.96,29.0374,296.581,228.88,47.125,-100,0,178.905
2.98,28.115,296.597,229.802,45.125,-100,0,179.074
3,27.2326,296.61,230.685,43.125,-100,0,179.22
3.02,26.3902,296.621,231.527,41.125,-100,0,179.348
3.04,25.5877,296.629,232.33,39.125,-100,0,179.46
3.06,24.8253,296.635,233.092,37.125,-100,0,179.555
3.08,24.1028,296.64,233.815,35.125,-100,0,179.638
3.1,23.4203,296.644,234.497,33.125,-100,0,179.709
3.12,22.7778,296.647,235.14,31.125,-100,0,179.77
3.14,22.1753,296.649,235.742,29.125,-100,0,179.818
3.16,21.6128,296.651,236.305,27.125,-100,0,179.858
3.18,21.0903,296.652,236.827,25.125,-100,0,179.891
3.2,20.6078,296.652,237.31,23.125,-100,0,179.917
3.22,20.1653,296.653,237.752,21.125,-100,0,179.938
3.24,19.7628,296.653,238.155,19.125,-100,0,179.955
3.26,19.4003,296.654,238.517,17.125,-100,0,179.966
3.28,19.0778,296.654,238.84,15.125,-100,0,179.977
3.3,18.7953,296.654,239.122,13.125,-100,0,179.983
3.32,18.5528,296.654,239.365,11.125,-100,0,179.987
3.34,18.3503,296.654,239.567,9.125,-100,0,179.99
3.36,18.1878,296.654,239.73,7.125,-100,0,179.993
3.38,18.0653,296.654,239.852,5.125,-100,0,179.994
3.4,17.9828,296.654,239.935,3.125,-100,0.000873573,179.996
3.42,17.9382,296.654,239.98,1.445,-68,1600,179.996
3.44,17.9208,296.654,239.997,0.405,-36,1600,179.997
3.46,17.9177,296.654,240,0.00499996,-3.99998,1600,179.997
