"time","x","y","position","velocity","acceleration","jerk","heading"
0,66.4713,178.232,0,0,0,0,0
0.02,66.4734,178.232,0.00209641,0.10482,5.24102,262.051,1.19373e-05
0.04,66.4884,178.232,0.0170712,0.748742,32.1961,1347.75,9.54983e-05
0.06,66.5288,178.232,0.057503,2.02159,63.6422,1572.3,0.000322307
0.08,66.6062,178.232,0.134872,3.86847,92.3443,1435.11,0.00075599
0.1,66.7235,178.232,0.252174,5.8651,99.8316,374.363,0.00141347
0.12,66.8807,178.232,0.409409,7.86173,99.8315,-0.0012419,0.00229478
0.14,67.0779,178.232,0.606576,9.85836,99.8315,0.000376364,0.00339991
0.16,67.315,178.232,0.843676,11.855,99.8315,-0.000376302,0.00472887
0.18,67.5917,178.232,1.12042,13.8371,99.104,-36.3756,0.00724823
0.2,67.9079,178.232,1.43663,15.8106,98.6751,-21.4478,0.0115279
0.22,68.264,178.232,1.79268,17.8025,99.5941,45.9537,0.0163468
0.24,68.6594,178.232,2.18811,19.7717,98.4642,-56.4983,0.0232062
0.26,69.0941,178.232,2.62282,21.7355,98.1902,-13.6986,0.0324701
0.28,69.5683,178.233,3.09703,23.7104,98.7417,27.5775,0.0434092
0.3,70.0814,178.233,3.61006,25.6514,97.0531,-84.4338,0.0582601
0.32,70.6336,178.234,4.16228,27.6112,97.9884,46.7658,0.0757866
0.34,71.2244,178.235,4.75314,29.5427,96.5738,-70.7279,0.0978649
0.36,71.8537,178.236,5.38243,31.4646,96.0952,-23.9339,0.125131
0.38,72.5217,178.238,6.05039,33.398,96.6727,28.8754,0.156825
0.4,73.2278,178.24,6.75651,35.3058,95.3872,-64.2727,0.194647
0.42,73.9721,178.243,7.50081,37.2152,95.4723,4.25341,0.238495
0.44,74.7545,178.246,8.28326,39.1226,95.3703,-5.09728,0.288493
0.46,75.5748,178.251,9.10356,41.015,94.619,-37.5662,0.345671
0.48,76.4324,178.257,9.96119,42.8811,93.3053,-65.686,0.41143
0.5,77.3273,178.263,10.8561,44.747,93.2935,-0.591252,0.486452
0.52,78.2594,178.272,11.7882,46.6058,92.9413,-17.609,0.570904
0.54,79.2285,178.282,12.7574,48.4556,92.4897,-22.5765,0.665028
0.56,80.2344,178.294,13.7634,50.3006,92.2512,-11.9256,0.769551
0.58,81.2766,178.31,14.8056,52.1135,90.6443,-80.3458,0.886628
0.6,82.3548,178.327,15.884,53.9164,90.1414,-25.1438,1.01689
0.62,83.469,178.348,16.9984,55.7218,90.2701,6.43032,1.15996
0.64,84.6191,178.373,18.1487,57.5166,89.7418,-26.4114,1.31657
0.66,85.8047,178.402,19.3347,59.3005,89.1978,-27.1994,1.48747
0.68,87.0253,178.437,20.5558,61.0531,87.6298,-78.4012,1.67495
0.7,88.2804,178.475,21.8115,62.7838,86.5347,-54.7541,1.88032
0.72,89.5703,178.52,23.1022,64.5362,87.6169,54.1104,2.10228
0.74,90.8945,178.572,24.4274,66.2592,86.1514,-73.2759,2.34229
0.76,92.2526,178.63,25.7867,67.9669,85.3846,-38.343,2.60203
0.78,93.6443,178.696,27.18,69.6634,84.8258,-27.9405,2.88167
0.8,95.0689,178.771,28.6066,71.3303,83.3429,-74.1413,3.18361
0.82,96.5268,178.857,30.067,73.0216,84.5671,61.2106,3.50589
0.84,98.0175,178.953,31.5608,74.6864,83.2378,-66.4645,3.85065
0.86,99.5404,179.06,33.0875,76.337,82.5292,-35.4314,4.21736
0.88,101.097,179.18,34.6485,78.0514,85.7221,159.642,4.60577
0.9,102.685,179.314,36.2419,79.6661,80.7345,-249.375,5.01673
0.92,104.306,179.462,37.8702,81.4166,87.5272,339.634,5.4484
0.94,105.959,179.627,39.5313,83.0561,81.9751,-277.608,5.89918
0.96,107.646,179.808,41.228,84.8367,89.0279,352.641,6.36668
0.98,109.367,180.007,42.9608,86.6359,89.9629,46.7479,6.84746
1,111.124,180.226,44.7312,88.5209,94.249,214.308,7.33666
1.02,112.915,180.464,46.5383,90.3552,91.7155,-126.675,7.82822
1.04,114.734,180.722,48.3751,91.842,74.3386,-868.843,8.31232
1.06,116.571,180.998,50.2322,92.8549,50.6452,-1184.67,8.77769
1.08,118.416,181.29,52.1007,93.4259,28.5493,-1104.79,9.21324
1.1,120.271,181.598,53.9813,94.0255,29.9815,71.6076,9.60984
1.12,122.139,181.921,55.8764,94.7553,36.4861,325.232,9.95918
1.14,124.02,182.257,57.7878,95.573,40.8872,220.052,10.2534
1.16,125.92,182.604,59.7191,96.565,49.5986,435.571,10.4805
1.18,127.84,182.963,61.6716,97.6256,53.0333,171.734,10.6381
1.2,129.78,183.329,63.6468,98.7584,56.6393,180.299,10.7229
1.22,131.743,183.701,65.6439,99.8569,54.9239,-85.768,10.7327
1.24,133.727,184.077,67.6636,100.986,56.4365,75.6276,10.6669
1.26,135.734,184.453,69.7059,102.112,56.3047,-6.58989,10.5271
1.28,137.764,184.826,71.7691,103.16,52.4077,-194.848,10.3173
1.3,139.813,185.195,73.8513,104.11,47.5018,-245.293,10.0429
1.32,141.882,185.555,75.9519,105.03,46.0135,-74.4193,9.70754
1.34,143.97,185.905,78.0685,105.833,40.1596,-292.691,9.32193
1.36,146.072,186.243,80.1973,106.435,30.0945,-503.259,8.89536
1.38,148.183,186.564,82.3331,106.794,17.9551,-606.968,8.43672
1.4,150.29,186.868,84.4619,106.437,-17.8906,-1792.28,7.95694
1.42,152.378,187.151,86.569,105.356,-54.0157,-1806.25,7.46736
1.44,154.431,187.411,88.6386,103.478,-93.9089,-1994.66,6.97821
1.46,156.445,187.649,90.6667,101.408,-103.521,-480.606,6.49613
1.48,158.417,187.866,92.6502,99.1743,-111.666,-407.235,6.02618
1.5,160.347,188.061,94.5901,96.9966,-108.885,139.026,5.57205
1.52,162.232,188.238,96.483,94.6428,-117.691,-440.296,5.13625
1.54,164.073,188.396,98.3313,92.414,-111.44,312.569,4.72135
1.56,165.868,188.539,100.132,90.0385,-118.777,-366.857,4.32774
1.58,167.618,188.665,101.886,87.7156,-116.144,131.624,3.95551
1.6,169.322,188.778,103.594,85.3858,-116.491,-17.3476,3.60607
1.62,170.981,188.878,105.256,83.0802,-115.277,60.7027,3.27799
1.64,172.593,188.966,106.87,80.7193,-118.047,-138.467,2.97201
1.66,174.159,189.043,108.439,78.424,-114.766,164.051,2.68742
1.68,175.68,189.111,109.961,76.1021,-116.095,-66.469,2.42296
1.7,177.155,189.17,111.437,73.8049,-114.86,61.7748,2.17724
1.72,178.585,189.221,112.868,71.5541,-112.538,116.086,1.95071
1.74,179.969,189.266,114.252,69.2334,-116.035,-174.867,1.74156
1.76,181.308,189.305,115.593,67.013,-111.019,250.826,1.54982
1.78,182.604,189.337,116.889,64.8061,-110.348,33.5503,1.37466
1.8,183.855,189.365,118.14,62.5353,-113.539,-159.578,1.21389
1.82,185.061,189.39,119.346,60.3272,-110.405,156.712,1.06676
1.84,186.223,189.41,120.508,58.1117,-110.774,-18.4714,0.933656
1.86,187.342,189.427,121.628,55.9639,-107.392,169.132,0.813603
1.88,188.417,189.441,122.702,53.7368,-111.355,-198.166,0.705141
1.9,189.449,189.453,123.735,51.6243,-105.625,286.502,0.607443
1.92,190.438,189.462,124.723,49.4219,-110.119,-224.699,0.519769
1.94,191.383,189.47,125.669,47.2674,-107.726,119.658,0.442335
1.96,192.286,189.477,126.572,45.1751,-104.614,155.595,0.374305
1.98,193.146,189.482,127.432,43.0043,-108.542,-196.403,0.314284
2,193.965,189.486,128.251,40.9479,-102.819,286.173,0.261313
2.02,194.741,189.489,129.027,38.8032,-107.233,-220.731,0.214617
2.04,195.476,189.492,129.762,36.7517,-102.579,232.708,0.17467
2.06,196.168,189.494,130.454,34.6037,-107.4,-241.042,0.141222
2.08,196.82,189.495,131.106,32.5847,-100.949,322.549,0.112349
2.1,197.429,189.496,131.715,30.4512,-106.673,-286.221,0.0890208
2.12,197.998,189.497,132.284,28.4445,-100.335,316.924,0.0694591
2.14,198.525,189.497,132.811,26.3473,-104.859,-226.232,0.0530292
2.16,199.012,189.498,133.298,24.3438,-100.174,234.25,0.040156
2.18,199.457,189.498,133.743,22.26,-104.19,-200.766,0.0295244
2.2,199.863,189.498,134.148,20.2779,-99.1066,254.16,0.0210273
2.22,200.226,189.498,134.512,18.1898,-104.407,-265.027,0.015064
2.24,200.551,189.498,134.837,16.2299,-97.9953,320.59,0.00975879
2.26,200.834,189.498,135.12,14.15,-103.995,-299.995,0.00644014
2.28,201.077,189.498,135.363,12.1704,-98.9765,250.935,0.00508321
2.3,201.28,189.498,135.566,10.1171,-102.668,-184.596,0.0039501
2.32,201.443,189.498,135.729,8.16369,-97.6685,250,0.00304081
2.34,201.565,189.498,135.851,6.11032,-102.668,-250,0.00235535
2.36,201.648,189.498,135.934,4.15695,-97.6685,250,0.00189371
2.38,201.694,189.498,135.979,2.25376,-95.1595,125.449,0.00164396
2.4,201.711,189.498,135.996,0.851468,-70.1146,1252.25,0.00154641
2.42,201.714,189.498,135.999,0.150255,-35.0607,1752.7,0.00152944
