"time","x","y","position","velocity","acceleration","jerk","heading"
0,10,267.977,0,0,0,0,0
0.02,10.0024,267.977,0.00239897,0.119948,5.99742,299.871,-4.93393e-06
0.04,10.0192,267.977,0.0191917,0.839638,35.9845,1499.35,-3.94715e-05
0.06,10.0648,267.977,0.0647721,2.27902,71.969,1799.22,-0.000133216
0.08,10.1535,267.977,0.153534,4.43809,107.953,1799.22,-0.000315772
0.1,10.2999,267.977,0.299871,7.31685,143.938,1799.23,-0.000616742
0.12,10.5158,267.977,0.515778,10.7953,173.925,1499.35,-0.0010608
0.14,10.8037,267.977,0.803654,14.3938,179.923,299.871,-0.00165287
0.16,11.1635,267.977,1.16346,17.9906,179.838,-4.24555,-0.00255512
0.18,11.5949,267.977,1.59491,21.5723,179.089,-37.4258,-0.00519711
0.2,12.0983,267.977,2.09826,25.1676,179.764,33.7666,-0.00828905
0.22,12.6732,267.977,2.67317,28.7451,178.875,-44.4839,-0.0135301
0.24,13.3198,267.977,3.31979,32.331,179.295,21.0057,-0.0201179
0.26,14.0377,267.977,4.0377,35.8956,178.228,-53.3403,-0.0300899
0.28,14.8271,267.976,4.82708,39.469,178.67,22.0989,-0.042605
0.3,15.6877,267.976,5.68775,43.0334,178.223,-22.3296,-0.0585101
0.32,16.6194,267.974,6.61944,46.5845,177.554,-33.4706,-0.0790969
0.34,17.6221,267.973,7.62208,50.132,177.372,-9.10128,-0.104695
0.36,18.6955,267.971,8.69556,53.674,177.1,-13.6212,-0.135839
0.38,19.8397,267.967,9.83971,57.2079,176.696,-20.1911,-0.173318
0.4,21.0544,267.963,11.0544,60.7334,176.276,-21.0038,-0.217908
0.42,22.3393,267.958,12.3394,64.2493,175.796,-23.9858,-0.270542
0.44,23.6944,267.951,13.6944,67.7529,175.178,-30.8764,-0.332424
0.46,25.1193,267.941,15.1194,71.2469,174.704,-23.7354,-0.404024
0.48,26.6141,267.93,16.6142,74.7439,174.848,7.19652,-0.485967
0.5,28.1783,267.916,18.1785,78.213,173.456,-69.5892,-0.580079
0.52,29.8119,267.898,19.8122,81.683,173.499,2.15662,-0.686735
0.54,31.5145,267.875,21.515,85.1403,172.864,-31.7359,-0.807283
0.56,33.286,267.849,23.2867,88.5851,172.242,-31.1319,-0.942407
0.58,35.126,267.816,25.1269,92.0107,171.28,-48.095,-1.09413
0.6,37.0342,267.777,27.0355,95.4302,170.975,-15.2146,-1.26271
0.62,39.0105,267.73,29.0124,98.8469,170.834,-7.09091,-1.44956
0.64,41.0545,267.674,31.0571,102.236,169.436,-69.8754,-1.65614
0.66,43.1658,267.609,33.1695,105.616,169.012,-21.1873,-1.88385
0.68,45.3441,267.533,35.349,108.98,168.185,-41.3919,-2.13391
0.7,47.5889,267.444,37.5957,112.333,167.677,-25.3925,-2.40786
0.72,49.8999,267.34,39.909,115.663,166.505,-58.5654,-2.70724
0.74,52.2767,267.222,42.2887,118.986,166.163,-17.1037,-3.03341
0.76,54.7186,267.085,44.7344,122.286,164.968,-59.7636,-3.38784
0.78,57.2251,266.928,47.2459,125.572,164.319,-32.4707,-3.77279
0.8,59.7954,266.749,49.8224,128.828,162.801,-75.8921,-4.18994
0.82,62.4292,266.546,52.4639,132.075,162.349,-22.5741,-4.64099
0.84,65.1253,266.316,55.1699,135.297,161.082,-63.3887,-5.12826
0.86,67.8829,266.055,57.9398,138.497,159.99,-54.5922,-5.65417
0.88,70.701,265.763,60.7731,141.664,158.357,-81.6215,-6.22056
0.9,73.5787,265.433,63.6695,144.823,157.945,-20.6038,-6.83017
0.92,76.5142,265.065,66.628,147.926,155.153,-139.599,-7.48582
0.94,79.5064,264.653,69.6485,151.021,154.744,-20.4404,-8.19047
0.96,82.5536,264.194,72.7301,154.081,153.011,-86.6711,-8.94719
0.98,85.6537,263.684,75.8719,157.091,150.519,-124.583,-9.7592
1,88.8048,263.118,79.0734,160.075,149.193,-66.305,-10.6299
1.02,92.0022,262.491,82.3317,162.915,141.997,-359.828,-11.563
1.04,95.2318,261.801,85.6341,165.12,110.26,-1586.85,-12.5593
1.06,98.4776,261.046,88.9665,166.62,74.9698,-1764.49,-13.6182
1.08,101.724,260.227,92.3151,167.429,40.4882,-1724.08,-14.7374
1.1,104.956,259.342,95.6661,167.55,6.02988,-1722.92,-15.9153
1.12,108.159,258.391,99.0074,167.069,-24.0687,-1504.93,-17.1502
1.14,111.33,257.374,102.337,166.454,-30.7283,-332.979,-18.4431
1.16,114.463,256.288,105.653,165.811,-32.158,-71.4866,-19.796
1.18,117.557,255.131,108.956,165.182,-31.4506,35.3722,-21.2114
1.2,120.61,253.902,112.247,164.554,-31.3966,2.70083,-22.6895
1.22,123.616,252.597,115.524,163.83,-36.2092,-240.63,-24.2315
1.24,126.573,251.217,118.788,163.175,-32.7176,174.58,-25.8383
1.26,129.477,249.758,122.037,162.491,-34.2154,-74.8911,-27.5107
1.28,132.324,248.221,125.273,161.759,-36.6209,-120.274,-29.2487
1.3,135.11,246.603,128.495,161.115,-32.1746,222.313,-31.0519
1.32,137.832,244.903,131.704,160.469,-32.2979,-6.16305,-32.9194
1.34,140.485,243.122,134.899,159.737,-36.6215,-216.181,-34.8493
1.36,143.066,241.258,138.083,159.192,-27.2287,469.638,-36.8392
1.38,145.57,239.312,141.254,158.545,-32.3677,-256.948,-38.8859
1.4,147.993,237.283,144.414,158.015,-26.4836,294.204,-40.9843
1.42,150.332,235.173,147.565,157.53,-24.245,111.933,-43.1287
1.44,152.585,232.982,150.707,157.109,-21.0426,160.12,-45.3124
1.46,154.747,230.71,153.843,156.816,-14.6894,317.657,-47.5278
1.48,156.815,228.36,156.974,156.527,-14.4375,12.5965,-49.7666
1.5,158.788,225.933,160.102,156.394,-6.63478,390.136,-52.0198
1.52,160.664,223.431,163.229,156.367,-1.366,263.439,-54.2777
1.54,162.44,220.856,166.357,156.393,1.28569,132.585,-56.5304
1.56,164.115,218.211,169.488,156.555,8.11518,341.474,-58.7675
1.58,165.69,215.498,172.625,156.854,14.9589,342.185,-60.9794
1.6,167.162,212.72,175.768,157.163,15.439,24.0054,-63.157
1.62,168.533,209.881,178.921,157.645,24.1228,434.192,-65.2917
1.64,169.801,206.984,182.084,158.145,24.9988,43.798,-67.3757
1.66,170.971,204.031,185.26,158.782,31.8517,342.643,-69.4024
1.68,172.041,201.028,188.448,159.423,32.0474,9.78809,-71.3662
1.7,173.013,197.976,191.651,160.139,35.7731,186.283,-73.2626
1.72,173.89,194.88,194.869,160.895,37.7978,101.238,-75.0882
1.74,174.674,191.744,198.101,161.62,36.2684,-76.4733,-76.8409
1.76,175.366,188.571,201.349,162.408,39.38,155.583,-78.5193
1.78,175.971,185.362,204.614,163.243,41.7546,118.726,-80.1211
1.8,176.49,182.124,207.894,163.993,37.5269,-211.384,-81.6469
1.82,176.927,178.858,211.189,164.751,37.8792,17.6175,-83.1019
1.84,177.285,175.566,214.5,165.559,40.4175,126.914,-84.4813
1.86,177.566,172.252,217.826,166.288,36.418,-199.976,-85.7905
1.88,177.775,168.918,221.167,167.026,36.9381,26.0063,-87.0296
1.9,177.914,165.567,224.521,167.723,34.8294,-105.438,-88.2024
1.92,177.987,162.2,227.889,168.38,32.8573,-98.6013,-89.3113
1.94,177.996,158.819,231.269,169.033,32.6218,-11.777,-90.3587
1.96,177.945,155.428,234.66,169.554,26.0571,-328.234,-91.3582
1.98,177.836,152.033,238.057,169.857,15.1539,-545.159,-92.3262
2,177.67,148.636,241.458,170.034,8.85264,-315.064,-93.2746
2.02,177.447,145.24,244.862,170.202,8.40215,-22.5243,-94.2135
2.04,177.169,141.847,248.266,170.18,-1.10612,-475.414,-95.1514
2.06,176.836,138.462,251.667,170.078,-5.08641,-199.014,-96.0958
2.08,176.447,135.086,255.066,169.951,-6.36122,-63.7406,-97.0538
2.1,176.002,131.72,258.462,169.761,-9.47357,-155.617,-98.0319
2.12,175.499,128.368,261.851,169.471,-14.496,-251.124,-99.0365
2.14,174.937,125.032,265.234,169.136,-16.7576,-113.08,-100.074
2.16,174.317,121.715,268.609,168.741,-19.7573,-149.985,-101.151
2.18,173.633,118.42,271.974,168.251,-24.5258,-238.421,-102.273
2.2,172.887,115.15,275.327,167.697,-27.6774,-157.584,-103.449
2.22,172.076,111.909,278.668,167.043,-32.7201,-252.132,-104.685
2.24,171.196,108.7,281.995,166.352,-34.5095,-89.47,-105.989
2.26,170.246,105.529,285.306,165.52,-41.6294,-355.998,-107.369
2.28,169.224,102.399,288.599,164.659,-43.0388,-70.4682,-108.834
2.3,168.125,99.3157,291.872,163.65,-50.437,-369.91,-110.395
2.32,166.948,96.2842,295.124,162.595,-52.749,-115.598,-112.057
2.34,165.691,93.3119,298.351,161.355,-62.0219,-463.646,-113.835
2.36,164.349,90.4046,301.553,160.11,-62.2486,-11.3366,-115.735
2.38,162.921,87.5706,304.727,158.676,-71.7156,-473.347,-117.771
2.4,161.405,84.8165,307.87,157.189,-74.3237,-130.405,-119.947
2.42,159.797,82.15,310.984,155.689,-75.0204,-34.8354,-122.268
2.44,158.097,79.5792,314.066,154.112,-78.8417,-191.068,-124.739
2.46,156.302,77.112,317.118,152.554,-77.8803,48.0724,-127.36
2.48,154.412,74.7552,320.138,151.041,-75.6712,110.452,-130.124
2.5,152.427,72.515,323.131,149.65,-69.5199,307.566,-133.018
2.52,150.345,70.3967,326.102,148.536,-55.7337,689.309,-136.023
2.54,148.166,68.404,329.055,147.627,-45.4185,515.761,-139.111
2.56,145.889,66.5392,331.998,147.151,-23.8185,1080,-142.248
2.58,143.516,64.8034,334.938,147.006,-7.2628,827.785,-145.395
2.6,141.045,63.1966,337.885,147.377,18.5575,1291.01,-148.511
2.62,138.479,61.7173,340.847,148.099,36.0983,877.04,-151.553
2.64,135.818,60.3635,343.833,149.272,58.6403,1127.1,-154.485
2.66,133.066,59.1324,346.848,150.756,74.2194,778.955,-157.277
2.68,130.226,58.0203,349.898,152.49,86.6872,623.39,-159.904
2.7,127.304,57.0229,352.985,154.382,94.5972,395.501,-162.351
2.72,124.306,56.1349,356.112,156.319,96.8625,113.267,-164.609
2.74,121.237,55.3507,359.279,158.372,102.671,290.41,-166.675
2.76,118.105,54.6639,362.486,160.334,98.0575,-230.662,-168.551
2.78,114.914,54.0677,365.732,162.296,98.1082,2.53691,-170.243
2.8,111.673,53.5553,369.013,164.073,88.8464,-463.09,-171.76
2.82,108.385,53.1198,372.33,165.841,88.4052,-22.062,-173.113
2.84,105.058,52.7543,375.677,167.35,75.4687,-646.821,-174.314
2.86,101.705,52.4526,379.043,168.314,48.1678,-1365.05,-175.37
2.88,98.3455,52.2086,382.412,168.434,6.00603,-2108.09,-176.291
2.9,94.9968,52.0157,385.766,167.715,-35.9175,-2096.18,-177.088
2.92,91.6769,51.8673,389.089,166.16,-77.7581,-2092.03,-177.772
2.94,88.401,51.7568,392.367,163.889,-113.539,-1789.07,-178.349
2.96,85.1772,51.678,395.592,161.235,-132.724,-959.245,-178.836
2.98,82.0083,51.6253,398.761,158.47,-138.218,-274.685,-179.243
3,78.8963,51.5936,401.873,155.604,-143.314,-254.813,-179.58
3.02,75.8434,51.5788,404.926,152.647,-147.881,-228.349,-179.856
3.04,72.8517,51.5773,407.918,149.589,-152.864,-249.118,179.92
3.06,69.9221,51.5861,410.848,146.477,-155.608,-137.241,179.743
3.08,67.0565,51.6025,413.713,143.282,-159.768,-207.96,179.604
3.1,64.2557,51.6246,416.514,140.045,-161.823,-102.759,179.5
3.12,61.5211,51.6504,419.249,136.735,-165.505,-184.089,179.424
3.14,58.8532,51.6785,421.917,133.403,-166.594,-54.4588,179.373
3.16,56.253,51.7077,424.517,130.019,-169.214,-131.002,179.343
3.18,53.721,51.7371,427.049,126.608,-170.561,-67.3401,179.331
3.2,51.2583,51.7659,429.512,123.144,-173.198,-131.892,179.332
3.22,48.865,51.7935,431.906,119.674,-173.49,-14.5531,179.345
3.24,46.5417,51.8197,434.229,116.173,-175.045,-77.7756,179.368
3.26,44.2888,51.8439,436.482,112.651,-176.126,-54.0588,179.398
3.28,42.107,51.8662,438.664,109.097,-177.675,-77.4159,179.433
3.3,39.9962,51.8864,440.775,105.543,-177.699,-1.20896,179.472
3.32,37.957,51.9045,442.814,101.963,-178.994,-64.7406,179.513
3.34,35.9895,51.9205,444.782,98.3781,-179.262,-13.4469,179.555
3.36,34.0939,51.9345,446.678,94.7829,-179.762,-24.9642,179.598
3.38,32.2705,51.9467,448.501,91.1718,-180.551,-39.4499,179.64
3.4,30.5192,51.957,450.252,87.5659,-180.298,12.62,179.681
3.42,28.8403,51.9659,451.931,83.9446,-181.065,-38.3498,179.72
3.44,27.234,51.9732,453.538,80.3183,-181.313,-12.4057,179.757
3.46,25.7002,51.9792,455.071,76.6916,-181.333,-0.976114,179.791
3.48,24.239,51.9841,456.533,73.06,-181.58,-12.3325,179.822
3.5,22.8502,51.9881,457.921,69.439,-181.054,26.2781,179.851
3.52,21.5343,51.9912,459.237,65.797,-182.099,-52.2451,179.876
3.54,20.2909,51.9937,460.481,62.171,-181.3,39.9463,179.899
3.56,19.12,51.9955,461.652,58.5445,-181.324,-1.17888,179.919
3.58,18.0217,51.9969,462.75,54.9131,-181.572,-12.4199,179.936
3.6,16.9961,51.9979,463.776,51.2816,-181.572,0.0108728,179.95
3.62,16.0429,51.9986,464.729,47.6607,-181.048,26.2018,179.962
3.64,15.1621,51.9991,465.61,44.0397,-181.047,0.0144686,179.972
3.66,14.3537,51.9995,466.418,40.4188,-181.047,0.00904454,179.98
3.68,13.6178,51.9997,467.154,36.7928,-181.297,-12.5036,179.986
3.7,12.9543,51.9998,467.817,33.1769,-180.797,25.0065,179.99
3.72,12.3628,51.9999,468.409,29.5769,-180,39.8625,179.994
3.74,11.8436,52,468.928,25.9559,-181.047,-52.3598,179.996
3.76,11.3965,52,469.375,22.3559,-180,52.3585,179.998
3.78,11.0216,52,469.75,18.7455,-180.524,-26.1787,179.999
3.8,10.7189,52,470.053,15.135,-180.524,-5.59908e-08,179.999
3.82,10.4883,52,470.283,11.53,-180.25,13.6799,179.999
3.84,10.3282,52,470.443,8.00547,-176.226,201.18,180
3.86,10.2288,52,470.543,4.97,-151.774,1222.64,180
3.88,10.1755,52,470.596,2.665,-115.25,1826.18,180
3.9,10.154,52,470.618,1.075,-79.5,1787.5,180
3.92,10.1499,52,470.622,0.205,-43.5,1800,180
