"time","x","y","position","velocity","acceleration","jerk","heading"
0,10,280,0,0,0,0,0
0.02,10.0024,280,0.0024,0.36,36,1800,-9.25721e-07
0.04,10.0192,280,0.0192,1.44,72,1800,-7.40577e-06
0.06,10.0648,280,0.0648,3.24,108,1800,-2.49945e-05
0.08,10.1536,280,0.1536,5.76,144,1800,-5.92462e-05
0.1,10.3,280,0.3,9,180,1800,-0.000115715
0.12,10.516,280,0.516,12.6,180,0,-0.00019903
0.14,10.804,280,0.804,16.2,180,0,-0.000310117
0.16,11.164,280,1.164,19.8,180,0,-0.000481026
0.18,11.596,280,1.596,23.4,180,0,-0.000994969
0.2,12.1,280,2.1,27,180,0,-0.00159647
0.22,12.676,280,2.676,30.6,180,0,-0.0026486
0.24,13.324,280,3.324,34.2,180,0,-0.00398027
0.26,14.044,280,4.044,37.8,180,0,-0.00606795
0.28,14.836,280,4.836,41.4,180,0,-0.00873923
0.3,15.7,280,5.7,45,180,0,-0.0122092
0.32,16.636,279.999,6.636,48.6,180,0,-0.0168463
0.34,17.644,279.999,7.644,52.2,180,0,-0.0227858
0.36,18.724,279.999,8.724,55.8,180,0,-0.0302276
0.38,19.876,279.998,9.876,59.4,180,0,-0.0394613
0.4,21.1,279.997,11.1,63,180,0,-0.0507968
0.42,22.396,279.996,12.396,66.6,180,0,-0.0646159
0.44,23.764,279.994,13.764,70.2,180,0,-0.0814398
0.46,25.204,279.992,15.204,73.8,180,0,-0.101584
0.48,26.716,279.989,16.716,77.4,180,0,-0.125394
0.5,28.3,279.985,18.3,81,180,0,-0.153692
0.52,29.956,279.98,19.956,84.6,180,0,-0.186933
0.54,31.684,279.974,21.684,88.2,180,0,-0.225734
0.56,33.484,279.966,23.484,91.8,180,0,-0.270839
0.58,35.3559,279.956,25.356,95.4,180,0,-0.323191
0.6,37.2999,279.944,27.3,99,180,0,-0.383289
0.62,39.3158,279.93,29.316,102.6,180,0,-0.452175
0.64,41.4038,279.912,31.404,106.2,180,0,-0.531183
0.66,43.5637,279.89,33.564,109.8,180,0,-0.621075
0.68,45.7955,279.864,35.796,113.4,180,0,-0.723023
0.7,48.0993,279.832,38.1,117,180,0,-0.838299
0.72,50.475,279.795,40.476,120.6,180,0,-0.968246
0.74,52.9226,279.751,42.924,124.2,180,0,-1.11448
0.76,55.442,279.698,45.444,127.8,180,0,-1.27877
0.78,58.0333,279.636,48.036,131.4,180,0,-1.4625
0.8,60.6963,279.563,50.7,135,180,0,-1.66741
0.82,63.431,279.478,53.436,138.6,180,0,-1.89644
0.84,66.2372,279.379,56.244,142.2,180,0,-2.15076
0.86,69.1149,279.264,59.124,145.8,180,0,-2.43399
0.88,72.0639,279.131,62.076,149.4,180,0,-2.74778
0.9,75.084,278.977,65.1,153,180,0,-3.09587
0.92,78.1749,278.799,68.196,156.6,180,0,-3.48164
0.94,81.3363,278.596,71.364,160.2,180,0,-3.90845
0.96,84.5678,278.362,74.604,163.8,180,0,-4.38055
0.98,87.869,278.094,77.916,167.4,180,0,-4.90263
1,91.2391,277.788,81.3,171,180,-3.97904e-11,-5.4799
1.02,94.675,277.439,84.7536,174.24,144,-1800,-6.11764
1.04,98.1639,277.044,88.2648,176.76,108,-1800,-6.82011
1.06,101.69,276.598,91.8192,178.56,72,-1800,-7.59144
1.08,105.238,276.099,95.4024,179.64,36,-1800,-8.43361
1.1,108.793,275.544,99,180,0,-1800,-9.35072
1.12,112.34,274.928,102.6,180,0,0,-10.3454
1.14,115.875,274.249,106.2,180,0,0,-11.4234
1.16,119.396,273.501,109.8,180,0,0,-12.5916
1.18,122.901,272.678,113.4,180,0,0,-13.8601
1.2,126.386,271.774,117,180,0,0,-15.2321
1.22,129.847,270.784,120.6,180,0,0,-16.7168
1.24,133.28,269.702,124.2,180,0,0,-18.3229
1.26,136.68,268.519,127.8,180,0,0,-20.0595
1.28,140.041,267.23,131.4,180,0,0,-21.9351
1.3,143.356,265.827,135,180,0,0,-23.9582
1.32,146.618,264.304,138.6,180,0,0,-26.1347
1.34,149.817,262.654,142.2,180,0,0,-28.4674
1.36,152.944,260.87,145.8,180,0,0,-30.9563
1.38,155.988,258.949,149.4,180,0,0,-33.5998
1.4,158.937,256.885,153,180,0,0,-36.3888
1.42,161.78,254.677,156.6,180,0,0,-39.3077
1.44,164.505,252.324,160.2,179.999,-1.99482,-99.741,-42.3351
1.46,167.097,249.831,163.797,179.599,-37.9948,-1800,-45.4413
1.48,169.539,247.211,167.379,178.479,-73.9948,-1800,-48.5829
1.5,171.815,244.485,170.932,176.639,-109.995,-1800,-51.7116
1.52,173.914,241.674,174.44,174.079,-145.995,-1800,-54.7792
1.54,175.83,238.805,177.89,170.801,-180,-1700.26,-57.7412
1.56,177.562,235.903,181.27,167.201,-180,0,-60.5623
1.58,179.12,232.985,184.578,163.601,-180,0,-63.2232
1.6,180.514,230.065,187.814,160.001,-180,0,-65.714
1.62,181.756,227.155,190.978,156.401,-180,0,-68.0319
1.64,182.858,224.267,194.07,152.801,-180,0,-70.1713
1.66,183.833,221.408,197.09,149.201,-180,0,-72.1395
1.68,184.692,218.588,200.038,145.601,-180,0,-73.9517
1.7,185.447,215.813,202.914,142.001,-180,0,-75.5987
1.72,186.107,213.088,205.718,138.401,-180,0,-77.1112
1.74,186.684,210.418,208.45,134.801,-180,0,-78.4792
1.76,187.187,207.806,211.11,131.201,-180,0,-79.7281
1.78,187.623,205.255,213.698,127.601,-180,0,-80.8651
1.8,187.999,202.767,216.214,124.001,-180,0,-81.8909
1.82,188.324,200.345,218.658,120.401,-180,0,-82.8217
1.84,188.603,197.989,221.03,116.801,-180,0,-83.6616
1.86,188.842,195.702,223.33,113.201,-180,0,-84.4201
1.88,189.045,193.483,225.558,109.601,-180,0,-85.1042
1.9,189.217,191.334,227.714,106.001,-180,0,-85.7197
1.92,189.362,189.255,229.798,102.401,-180,0,-86.2723
1.94,189.484,187.247,231.81,98.8005,-180,0,-86.7674
1.96,189.586,185.31,233.75,95.2005,-180,0,-87.2101
1.98,189.671,183.443,235.618,91.6005,-180,0,-87.6049
2,189.74,181.649,237.414,88.0005,-180,0,-87.9538
2.02,189.797,179.926,239.138,84.4005,-180,0,-88.2638
2.04,189.843,178.274,240.79,80.8005,-180,0,-88.5359
2.06,189.88,176.695,242.37,77.2005,-180,0,-88.7755
2.08,189.909,175.187,243.878,73.6005,-180,0,-88.9829
2.1,189.933,173.751,245.314,70.0005,-180,0,-89.1637
2.12,189.951,172.387,246.678,66.4005,-180,0,-89.3197
2.14,189.964,171.095,247.97,62.8005,-180,0,-89.452
2.16,189.975,169.875,249.19,59.2005,-180,0,-89.564
2.18,189.983,168.727,250.338,55.6005,-180,0,-89.658
2.2,189.988,167.651,251.414,52.0005,-180,0,-89.7361
2.22,189.992,166.647,252.418,48.4005,-180,0,-89.8003
2.24,189.995,165.715,253.35,44.8005,-180,0,-89.8518
2.26,189.997,164.855,254.21,41.2005,-180,0,-89.8918
2.28,189.998,164.067,254.998,37.6005,-180,0,-89.9233
2.3,189.999,163.351,255.714,34.0005,-180,0,-89.9484
2.32,189.999,162.707,256.358,30.4005,-180,0,-89.9651
2.34,190,162.135,256.93,26.8005,-180,0,-89.9785
2.36,190,161.635,257.43,23.2005,-180,0,-89.9863
2.38,190,161.207,257.858,19.6005,-180,0,-89.9928
2.4,190,160.851,258.214,16.0005,-180,0,-89.9956
2.42,190,160.567,258.498,12.4005,-180,0,-89.9971
2.44,190,160.355,258.71,8.80162,-178.005,99.741,-89.9982
2.46,190,160.212,258.853,5.60152,-142.005,1800,-89.9989
2.48,190,160.126,258.939,3.12142,-106.005,1800,-89.9993
2.5,190,160.083,258.983,1.36131,-70.0052,1800,-89.9996
2.52,190,160.067,258.998,0.321209,-34.0052,1800,-89.9997
