"time","x","y","position","velocity","acceleration","jerk","heading"
0,18.5083,278.51,0,0,0,0,0
0.02,18.5103,278.51,0.00199214,0.0996072,4.98036,249.018,-2.60928e-05
0.04,18.5242,278.51,0.0159372,0.69725,29.8822,1245.09,-0.000208743
0.06,18.5621,278.51,0.0537879,1.89254,59.7643,1494.11,-0.000704507
0.08,18.6358,278.51,0.127497,3.68547,89.6465,1494.11,-0.00166994
0.1,18.7553,278.51,0.247026,5.97643,114.548,1245.09,-0.00323551
0.12,18.9227,278.51,0.414366,8.36701,119.529,249.018,-0.00542731
0.14,19.1378,278.51,0.629518,10.7576,119.529,3.41002e-07,-0.00824534
0.16,19.4008,278.51,0.892481,13.1482,119.529,6.93355e-07,-0.0116896
0.18,19.7111,278.51,1.20277,15.5144,118.31,-60.918,-0.0173788
0.2,20.0688,278.51,1.56051,17.8871,118.638,16.3985,-0.0248772
0.22,20.4743,278.51,1.96595,20.2721,119.247,30.4607,-0.0333754
0.24,20.9251,278.51,2.41683,22.5438,113.586,-283.092,-0.0503957
0.26,21.4233,278.509,2.91503,24.9099,118.306,236.031,-0.0696696
0.28,21.9668,278.509,3.4585,27.1735,113.179,-256.367,-0.0980027
0.3,22.557,278.507,4.04867,29.509,116.774,179.751,-0.130633
0.32,23.1928,278.506,4.68455,31.7935,114.229,-127.243,-0.170922
0.34,23.8731,278.503,5.36477,34.0113,110.886,-167.164,-0.223339
0.36,24.598,278.5,6.08975,36.2487,111.872,49.3261,-0.286553
0.38,25.3685,278.496,6.86025,38.525,113.814,97.0899,-0.357999
0.4,26.1817,278.491,7.67346,40.6606,106.781,-351.681,-0.447046
0.42,27.0387,278.483,8.53046,42.8503,109.483,135.134,-0.549782
0.44,27.9396,278.473,9.43147,45.0505,110.012,26.4369,-0.666178
0.46,28.8826,278.462,10.3745,47.152,105.076,-246.815,-0.802136
0.48,29.8684,278.446,11.3604,49.2936,107.078,100.121,-0.955431
0.5,30.8958,278.428,12.388,51.3809,104.365,-135.663,-1.12931
0.52,31.9647,278.406,13.4572,53.4583,103.87,-24.7351,-1.32458
0.54,33.0756,278.377,14.5684,55.5601,105.092,61.085,-1.54008
0.56,34.2255,278.344,15.7187,57.5178,97.8843,-360.376,-1.78469
0.58,35.4164,278.304,16.9103,59.5804,103.13,262.268,-2.05147
0.6,36.647,278.257,18.1418,61.5748,99.7225,-170.355,-2.34559
0.62,37.9173,278.202,19.4134,63.5768,100.097,18.7463,-2.66605
0.64,39.2258,278.137,20.7234,65.5017,96.2439,-192.679,-3.01779
0.66,40.5732,278.061,22.073,67.4783,98.829,129.257,-3.39788
0.68,41.9588,277.974,23.4613,69.416,96.8897,-96.9657,-3.80897
0.7,43.3816,277.874,24.8876,71.3134,94.8691,-101.03,-4.25287
0.72,44.8422,277.76,26.3527,73.2581,97.236,118.344,-4.72745
0.74,46.3394,277.629,27.8556,75.1458,94.3819,-142.704,-5.23583
0.76,47.8736,277.482,29.3969,77.0624,95.8292,72.3647,-5.77646
0.78,49.4444,277.315,30.9765,78.982,95.9799,7.53183,-6.34894
0.8,51.0507,277.127,32.5937,80.86,93.9007,-103.959,-6.95603
0.82,52.6935,276.917,34.2498,82.8054,97.2693,168.431,-7.59365
0.84,54.3721,276.684,35.9446,84.739,96.6834,-29.2947,-8.26151
0.86,56.0867,276.424,37.6787,86.7063,98.3639,84.0261,-8.95862
0.88,57.8374,276.138,39.4527,88.6987,99.6196,62.7842,-9.68246
0.9,59.6244,275.82,41.2678,90.7544,102.784,158.219,-10.4301
0.92,61.4481,275.472,43.1243,92.8235,103.453,33.4556,-11.1986
0.94,63.309,275.09,45.0241,94.9895,108.301,242.376,-11.9836
0.96,65.2078,274.673,46.9681,97.2022,110.636,116.755,-12.7804
0.98,67.1454,274.22,48.9581,99.4989,114.835,209.978,-13.584
1,69.1235,273.727,50.9967,101.929,121.521,334.261,-14.3858
1.02,71.1416,273.194,53.0839,104.361,121.595,3.73691,-15.1793
1.04,73.1921,272.622,55.2126,106.434,103.631,-898.21,-15.9539
1.06,75.2676,272.014,57.3754,108.141,85.3551,-913.799,-16.6955
1.08,77.3595,271.373,59.5633,109.398,62.8735,-1124.08,-17.393
1.1,79.4616,270.701,61.7701,110.337,46.9524,-796.055,-18.0343
1.12,81.5741,270.001,63.9956,111.276,46.9083,-2.20711,-18.6137
1.14,83.6992,269.274,66.2416,112.302,51.3003,219.601,-19.1256
1.16,85.8425,268.522,68.5132,113.58,63.8972,629.848,-19.5521
1.18,88.0036,267.747,70.809,114.787,60.3968,-175.025,-19.8978
1.2,90.1865,266.95,73.1328,116.19,70.1184,486.083,-20.1516
1.22,92.3963,266.135,75.4879,117.758,78.401,414.128,-20.3002
1.24,94.6332,265.306,77.8736,119.283,76.2446,-107.819,-20.3465
1.26,96.9048,264.465,80.296,121.123,91.9876,787.15,-20.2737
1.28,99.2132,263.616,82.7554,122.967,92.2273,11.9851,-20.0777
1.3,101.56,262.765,85.2517,124.814,92.3305,5.1616,-19.757
1.32,103.953,261.916,87.791,126.968,107.709,768.917,-19.292
1.34,106.394,261.075,90.3727,129.083,105.739,-98.5177,-18.6917
1.36,108.888,260.248,93.0002,131.375,114.601,443.114,-17.9356
1.38,111.437,259.445,95.673,133.641,113.302,-64.9395,-17.029
1.4,114.045,258.671,98.393,136.002,118.087,239.238,-15.9667
1.42,116.714,257.938,101.162,138.426,121.188,155.039,-14.742
1.44,119.444,257.253,103.976,140.699,113.625,-378.145,-13.3674
1.46,122.237,256.628,106.838,143.126,121.35,386.288,-11.8308
1.48,125.088,256.074,109.742,145.183,102.883,-923.368,-10.1549
1.5,127.995,255.601,112.687,147.283,104.997,105.719,-8.3432
1.52,130.951,255.217,115.668,149.056,88.6507,-817.334,-6.41282
1.54,133.948,254.933,118.678,150.486,71.4905,-858.01,-4.38673
1.56,136.976,254.757,121.712,151.697,60.5434,-547.356,-2.28108
1.58,140.015,254.692,124.751,151.96,13.1421,-2370.06,-0.133101
1.6,143.039,254.742,127.776,151.224,-36.7658,-2495.4,2.02324
1.62,146.02,254.903,130.762,149.292,-96.6206,-2992.74,4.15045
1.64,148.934,255.167,133.688,146.293,-149.974,-2667.67,6.21469
1.66,151.764,255.525,136.539,142.594,-184.947,-1748.63,8.19457
1.68,154.501,255.966,139.312,138.617,-198.858,-695.554,10.0721
1.7,157.145,256.478,142.006,134.689,-196.383,123.732,11.8436
1.72,159.693,257.051,144.616,130.539,-207.476,-554.662,13.5024
1.74,162.143,257.675,147.145,126.445,-204.721,137.746,15.0466
1.76,164.499,258.341,149.593,122.394,-202.556,108.267,16.4814
1.78,166.76,259.038,151.959,118.288,-205.281,-136.272,17.8013
1.8,168.929,259.761,154.246,114.337,-197.558,386.183,19.0211
1.82,171.01,260.502,156.454,110.431,-195.296,113.101,20.1377
1.84,173.006,261.253,158.587,106.654,-188.875,321.037,21.164
1.86,174.918,262.013,160.645,102.872,-189.072,-9.86538,22.1013
1.88,176.751,262.773,162.629,99.2118,-183.015,302.873,22.9529
1.9,178.509,263.532,164.544,95.7564,-172.772,512.142,23.7319
1.92,180.194,264.286,166.389,92.2667,-174.484,-85.6183,24.4389
1.94,181.807,265.03,168.166,88.8429,-171.192,164.606,25.0812
1.96,183.353,265.764,169.878,85.5724,-163.522,383.511,25.6623
1.98,184.834,266.483,171.524,82.2976,-163.742,-10.9753,26.1885
2,186.251,267.187,173.106,79.1266,-158.551,259.538,26.6633
2.02,187.608,267.875,174.627,76.0601,-153.321,261.471,27.0903
2.04,188.904,268.544,176.086,72.9514,-155.439,-105.879,27.4739
2.06,190.144,269.194,177.486,69.9902,-148.056,369.128,27.8178
2.08,191.327,269.823,178.826,66.9783,-150.597,-127.025,28.1231
2.1,192.456,270.429,180.108,64.1054,-143.642,347.732,28.396
2.12,193.532,271.014,181.332,61.2104,-144.753,-55.5564,28.6365
2.14,194.557,271.576,182.501,58.4328,-138.879,293.724,28.851
2.16,195.529,272.115,183.613,55.605,-141.392,-125.657,29.0361
2.18,196.454,272.629,184.671,52.9068,-134.909,324.151,29.2023
2.2,197.328,273.12,185.673,50.083,-141.189,-313.978,29.3409
2.22,198.154,273.585,186.621,47.4285,-132.727,423.066,29.4622
2.24,198.934,274.026,187.517,44.7886,-131.993,36.7241,29.5668
2.26,199.666,274.442,188.359,42.0922,-134.82,-141.35,29.6542
2.28,200.352,274.834,189.149,39.5198,-128.62,310.014,29.7281
2.3,200.994,275.201,189.889,36.9687,-127.557,53.1089,29.7932
2.32,201.589,275.542,190.575,34.2948,-133.692,-306.743,29.8397
2.34,202.14,275.859,191.21,31.7957,-124.958,436.709,29.8792
2.36,202.649,276.151,191.797,29.318,-123.884,53.7057,29.9119
2.38,203.112,276.419,192.332,26.7605,-127.874,-199.486,29.9366
2.4,203.534,276.66,192.818,24.2819,-123.929,197.242,29.9561
2.42,203.911,276.878,193.254,21.7934,-124.427,-24.9189,29.9693
2.44,204.246,277.072,193.64,19.3473,-122.305,106.109,29.9778
2.46,204.539,277.241,193.979,16.9121,-121.761,27.2122,29.9852
2.48,204.789,277.385,194.268,14.4467,-123.266,-75.2499,29.9895
2.5,204.998,277.506,194.509,12.0563,-119.52,187.267,29.9928
2.52,205.166,277.602,194.702,9.67197,-119.218,15.1019,29.9955
2.54,205.29,277.675,194.846,7.19798,-123.7,-224.062,29.9974
2.56,205.375,277.723,194.943,4.85843,-116.978,336.103,29.9988
2.58,205.422,277.75,194.998,2.7207,-106.886,504.564,29.9995
2.6,205.443,277.763,195.023,1.23942,-74.064,1641.11,29.9998
2.62,205.449,277.766,195.029,0.336913,-45.1255,1446.93,29.9999
