"time","x","y","position","velocity","acceleration","jerk","heading"
0,68.4713,188.851,0,0,0,0,0
0.02,68.4733,188.851,0.00201113,0.100556,5.02782,251.391,3.6966e-05
0.04,68.4874,188.851,0.016089,0.703895,30.1669,1256.96,0.000295728
0.06,68.5256,188.851,0.0543005,1.91057,60.3339,1508.35,0.000998083
0.08,68.6,188.851,0.128712,3.72059,90.5008,1508.35,0.00236583
0.1,68.7207,188.851,0.24938,6.03339,115.64,1256.96,0.00458379
0.12,68.8896,188.851,0.418315,8.44674,120.668,251.391,0.00768893
0.14,69.1068,188.851,0.635517,10.8601,120.668,0.00188073,0.0116813
0.16,69.3723,188.851,0.900986,13.2735,120.668,-0.00376532,0.0165608
0.18,69.6872,188.851,1.21592,15.7465,123.651,149.167,0.0262911
0.2,70.0513,188.851,1.57998,18.2034,122.848,-40.1589,0.0398051
0.22,70.4639,188.851,1.9926,20.6306,121.356,-74.5824,0.055121
0.24,70.9275,188.852,2.45623,23.1816,127.552,309.775,0.0804665
0.26,71.4401,188.853,2.96881,25.6294,122.388,-258.188,0.108985
0.28,72.0064,188.854,3.53508,28.3131,134.185,589.853,0.15635
0.3,72.6231,188.856,4.15181,30.8365,126.172,-400.653,0.211907
0.32,73.2925,188.858,4.82123,33.4713,131.739,278.341,0.283061
0.34,74.0139,188.862,5.54263,36.0699,129.932,-90.3264,0.367383
0.36,74.7882,188.869,6.31691,38.714,132.202,113.51,0.467875
0.38,75.6176,188.876,7.14642,41.4754,138.073,293.509,0.592688
0.4,76.5029,188.886,8.03173,44.2658,139.517,72.2122,0.743004
0.42,77.4427,188.899,8.9716,46.9934,136.38,-156.846,0.915343
0.44,78.4392,188.917,9.96833,49.8364,142.151,288.537,1.1172
0.46,79.4941,188.94,11.0235,52.7577,146.068,195.887,1.35346
0.48,80.607,188.968,12.1367,55.6623,145.231,-41.8916,1.62323
0.5,81.7786,189.005,13.3088,58.6048,147.122,94.5476,1.92934
0.52,83.0123,189.05,14.5434,61.7297,156.245,456.176,2.28324
0.54,84.3071,189.106,15.8394,64.8008,153.554,-134.531,2.68185
0.56,85.6648,189.175,17.1989,67.9732,158.622,253.378,3.13189
0.58,87.0886,189.259,18.6251,71.3127,166.973,417.536,3.6442
0.6,88.5763,189.361,20.1163,74.5565,162.189,-239.172,4.2127
0.62,90.1313,189.484,21.6762,77.9953,171.944,487.737,4.85022
0.64,91.757,189.631,23.3086,81.6192,181.192,462.381,5.56895
0.66,93.4501,189.808,25.0109,85.117,174.891,-315.045,6.36056
0.68,95.2172,190.019,26.7905,88.9786,193.082,909.545,7.2492
0.7,97.0564,190.268,28.6465,92.799,191.022,-102.996,8.23276
0.72,98.9685,190.563,30.5812,96.7362,196.855,291.67,9.31807
0.74,100.959,190.91,32.6013,101.006,213.503,832.382,10.5275
0.76,103.022,191.319,34.7046,105.166,208.003,-274.982,11.8537
0.78,105.159,191.795,36.8946,109.5,216.701,434.885,13.3101
0.8,107.374,192.351,39.1785,114.191,234.516,890.759,14.9168
0.82,109.659,192.998,41.5524,118.698,225.392,-456.183,16.6646
0.84,112.011,193.743,44.0196,123.361,233.121,386.412,18.5599
0.86,114.423,194.601,46.5805,128.042,234.049,46.4113,20.6112
0.88,116.889,195.582,49.2339,132.671,231.475,-128.677,22.8084
0.9,119.395,196.696,51.9761,137.11,221.93,-477.244,25.1408
0.92,121.927,197.951,54.8023,141.311,210.051,-593.949,27.5928
0.94,124.469,199.352,57.7048,145.124,190.637,-970.713,30.1409
0.96,127.002,200.901,60.674,148.461,166.884,-1187.64,32.7506
0.98,129.508,202.596,63.6993,151.263,140.103,-1339.08,35.3842
1,131.966,204.428,66.7653,153.301,101.893,-1910.48,37.9965
1.02,134.36,206.387,69.8584,154.652,67.5186,-1718.72,40.5448
1.04,136.666,208.446,72.9503,154.598,-2.66024,-3508.94,42.9721
1.06,138.866,210.579,76.0142,153.195,-70.1608,-3375.03,45.2237
1.08,140.951,212.759,79.0306,150.819,-118.793,-2431.59,47.2788
1.1,142.917,214.96,81.9818,147.558,-163.094,-2215.05,49.1089
1.12,144.771,217.164,84.8618,144.004,-177.702,-730.402,50.7024
1.14,146.525,219.361,87.6726,140.538,-173.278,221.16,52.0665
1.16,148.188,221.54,90.4139,137.064,-173.699,-21.0171,53.1998
1.18,149.773,223.698,93.0919,133.899,-158.247,772.565,54.1234
1.2,151.291,225.824,95.7042,130.615,-164.221,-298.677,54.8303
1.22,152.752,227.92,98.2587,127.728,-144.35,993.576,55.3441
1.24,154.167,229.981,100.759,125.029,-134.914,471.757,55.6759
1.26,155.542,232.002,103.203,122.185,-142.224,-365.496,55.8219
1.28,156.887,233.985,105.6,119.864,-116.066,1307.94,55.8138
1.3,158.209,235.926,107.948,117.395,-123.417,-367.574,55.6425
1.32,159.517,237.827,110.255,115.351,-102.229,1059.42,55.3322
1.34,160.812,239.686,112.521,113.269,-104.091,-93.096,54.8855
1.36,162.102,241.502,114.749,111.398,-93.555,526.776,54.3127
1.38,163.389,243.274,116.938,109.499,-94.936,-69.0526,53.6255
1.4,164.674,244.995,119.087,107.42,-103.958,-451.082,52.8396
1.42,165.953,246.656,121.183,104.789,-131.55,-1379.63,51.966
1.44,167.223,248.253,123.224,102.048,-137.043,-274.642,51.0294
1.46,168.48,249.78,125.201,98.8895,-157.922,-1043.96,50.0405
1.48,169.726,251.241,127.122,96.006,-144.174,687.425,49.0179
1.5,170.962,252.638,128.987,93.2718,-136.713,373.06,47.9713
1.52,172.189,253.975,130.801,90.724,-127.391,466.097,46.9151
1.54,173.407,255.252,132.566,88.2179,-125.306,104.234,45.8566
1.56,174.615,256.475,134.286,85.9944,-111.172,706.684,44.8073
1.58,175.816,257.647,135.963,83.8674,-106.349,241.154,43.7737
1.6,177.007,258.768,137.599,81.786,-104.071,113.93,42.7637
1.62,178.189,259.842,139.196,79.8547,-96.566,375.231,41.7834
1.64,179.36,260.871,140.755,77.9382,-95.8248,37.0592,40.8369
1.66,180.52,261.858,142.278,76.1474,-89.5392,314.283,39.9293
1.68,181.667,262.803,143.764,74.3215,-91.297,-87.8918,39.0618
1.7,182.802,263.71,145.217,72.6472,-83.7161,379.045,38.2398
1.72,183.921,264.581,146.635,70.8856,-88.0795,-218.171,37.4621
1.74,185.025,265.415,148.018,69.1809,-85.2337,142.292,36.7294
1.76,186.111,266.216,149.368,67.4837,-84.862,18.5837,36.0459
1.78,187.18,266.983,150.683,65.7562,-86.3739,-75.5933,35.4042
1.8,188.228,267.721,151.965,64.1153,-82.045,216.441,34.8144
1.82,189.255,268.428,153.212,62.3071,-90.4089,-418.195,34.263
1.84,190.26,269.105,154.424,60.6335,-83.6781,336.541,33.7612
1.86,191.241,269.755,155.601,58.8454,-89.4081,-286.497,33.2991
1.88,192.197,270.378,156.741,57.0119,-91.6737,-113.28,32.8762
1.9,193.127,270.975,157.847,55.2771,-86.7379,246.788,32.4952
1.92,194.03,271.546,158.915,53.4307,-92.322,-279.205,32.1495
1.94,194.904,272.092,159.946,51.511,-95.9831,-183.057,31.8397
1.96,195.75,272.613,160.939,49.675,-91.7996,209.178,31.5649
1.98,196.563,273.11,161.893,47.667,-100.4,-430.021,31.3175
2,197.345,273.585,162.807,45.7386,-96.4232,198.839,31.101
2.02,198.096,274.036,163.683,43.7898,-97.4414,-50.911,30.914
2.04,198.812,274.463,164.517,41.7025,-104.365,-346.175,30.7484
2.06,199.494,274.868,165.31,39.629,-103.671,34.689,30.6034
2.08,200.142,275.25,166.062,37.6328,-99.8119,192.962,30.4858
2.1,200.755,275.61,166.773,35.509,-106.188,-318.812,30.3866
2.12,201.329,275.946,167.438,33.2863,-111.137,-247.453,30.3009
2.14,201.866,276.259,168.06,31.087,-109.963,58.6891,30.2269
2.16,202.367,276.551,168.64,29.0056,-104.073,294.522,30.1741
2.18,202.83,276.819,169.175,26.7179,-114.381,-515.384,30.1288
2.2,203.254,277.066,169.665,24.5353,-109.135,262.306,30.0963
2.22,203.638,277.287,170.108,22.1533,-119.098,-498.196,30.0679
2.24,203.983,277.486,170.507,19.9179,-111.768,366.53,30.0488
2.26,204.286,277.663,170.858,17.5605,-117.873,-305.237,30.0321
2.28,204.551,277.815,171.163,15.2474,-115.656,110.845,30.0212
2.3,204.774,277.945,171.421,12.922,-116.266,-30.522,30.0165
2.32,204.956,278.05,171.632,10.5169,-120.255,-199.432,30.0127
2.34,205.098,278.132,171.795,8.15362,-118.166,104.439,30.0097
2.36,205.198,278.189,171.91,5.79183,-118.089,3.82919,30.0076
2.38,205.259,278.224,171.98,3.49682,-114.751,166.943,30.0063
2.4,205.289,278.242,172.016,1.78181,-85.7507,1449.99,30.0056
2.42,205.3,278.248,172.029,0.623488,-57.916,1391.74,30.0054
