"time","x","y","position","velocity","acceleration","jerk","heading"
0,188.994,12.1582,0,0,0,0,150
0.02,188.992,12.1592,0.00223607,0.111803,5.59017,279.508,150
0.04,188.98,12.1662,0.0161285,0.694622,29.1409,1177.54,150
0.06,188.947,12.185,0.0539063,1.88889,59.7134,1528.62,150.001
0.08,188.884,12.2219,0.127531,3.68123,89.6169,1495.18,150.002
0.1,188.78,12.2817,0.247296,5.98828,115.353,1286.78,150.003
0.12,188.635,12.3653,0.414833,8.37683,119.428,203.763,150.006
0.14,188.448,12.473,0.630178,10.7672,119.52,4.6008,150.008
0.16,188.221,12.6044,0.892427,13.1125,117.263,-112.854,150.012
0.18,187.952,12.7595,1.20331,15.5443,121.593,216.491,150.018
0.2,187.642,12.9383,1.56136,17.9021,117.889,-185.156,150.025
0.22,187.291,13.1407,1.96625,20.2449,117.137,-37.6157,150.034
0.24,186.901,13.3658,2.41681,22.528,114.159,-148.919,150.052
0.26,186.469,13.6143,2.915,24.9091,119.053,244.732,150.072
0.28,185.998,13.8854,3.45793,27.1465,111.868,-359.274,150.101
0.3,185.487,14.1792,4.04747,29.4774,116.546,233.928,150.135
0.32,184.936,14.4955,4.68284,31.7682,114.539,-100.393,150.177
0.34,184.346,14.8333,5.36261,33.9888,111.031,-175.369,150.231
0.36,183.718,15.1923,6.0864,36.1894,110.032,-49.959,150.298
0.38,183.048,15.5732,6.85658,38.5088,115.97,296.89,150.373
0.4,182.343,15.9738,7.66755,40.5484,101.977,-699.647,150.468
0.42,181.599,16.3945,8.5224,42.7428,109.723,387.288,150.578
0.44,180.816,16.8349,9.4207,44.915,108.611,-55.5908,150.704
0.46,179.997,17.2937,10.3595,46.9413,101.313,-364.915,150.852
0.48,179.14,17.7703,11.3406,49.0555,105.712,219.963,151.021
0.5,178.244,18.2641,12.3629,51.113,102.873,-141.923,151.214
0.52,177.313,18.7737,13.425,53.1066,99.6818,-159.577,151.434
0.54,176.343,19.2988,14.5273,55.112,100.268,29.3064,151.679
0.56,175.34,19.8365,15.6659,56.9302,90.9117,-467.809,151.963
0.58,174.299,20.3872,16.8431,58.8594,96.4597,277.4,152.277
0.6,173.223,20.9488,18.0568,60.6885,91.4562,-250.179,152.629
0.62,172.11,21.5203,19.3078,62.5495,93.0485,79.6167,153.018
0.64,170.965,22.0985,20.5914,64.1792,81.4848,-578.187,153.457
0.66,169.781,22.6832,21.9112,65.9891,90.4938,450.451,153.938
0.68,168.566,23.2708,23.261,67.4892,75.0077,-774.303,154.476
0.7,167.316,23.8602,24.6432,69.1134,81.2056,309.896,155.066
0.72,166.032,24.4484,26.0554,70.6067,74.6651,-327.027,155.717
0.74,164.717,25.0323,27.494,71.9336,66.3482,-415.845,156.437
0.76,163.367,25.6101,28.9625,73.4233,74.4832,406.751,157.221
0.78,161.989,26.1773,30.4532,74.5343,55.5502,-946.651,158.088
0.8,160.579,26.7314,31.9681,75.7436,60.4678,245.881,159.034
0.82,159.138,27.2685,33.5053,76.8607,55.8539,-230.694,160.068
0.84,157.671,27.7849,35.0608,77.7772,45.8216,-501.619,161.197
0.86,156.174,28.2772,36.6366,78.7889,50.5863,238.239,162.421
0.88,154.652,28.7402,38.2275,79.546,37.8551,-636.561,163.754
0.9,153.103,29.1711,39.8351,80.3792,41.6605,190.27,165.189
0.92,151.53,29.5646,41.4566,81.0729,34.6837,-348.844,166.74
0.94,149.933,29.9173,43.0926,81.8014,36.4271,87.1745,168.398
0.96,148.31,30.2248,44.7442,82.5795,38.9055,123.916,170.167
0.98,146.662,30.4831,46.4125,83.4164,41.8424,146.847,172.039
1,144.986,30.6884,48.1006,84.4021,49.2843,372.094,174.005
1.02,143.283,30.8368,49.8107,85.5054,55.169,294.235,176.05
1.04,141.554,30.9244,51.5417,86.5512,52.288,-144.049,178.146
1.06,139.804,30.9487,53.2918,87.5053,47.706,-229.103,-179.741
1.08,138.038,30.9082,55.0587,88.3462,42.0434,-283.126,-177.646
1.1,136.255,30.8028,56.8444,89.2862,47.0028,247.965,-175.605
1.12,134.454,30.6328,58.6534,90.447,58.0396,551.84,-173.643
1.14,132.631,30.399,60.4911,91.8847,71.8813,692.086,-171.777
1.16,130.779,30.102,62.3672,93.8057,96.0513,1208.5,-170.036
1.18,128.898,29.7436,64.2817,95.7248,95.9545,-4.83647,-168.422
1.2,126.985,29.3252,66.2397,97.9009,108.806,642.58,-166.956
1.22,125.039,28.85,68.2431,100.169,113.413,230.346,-165.637
1.24,123.06,28.3206,70.2921,102.448,113.962,27.4704,-164.473
1.26,121.044,27.741,72.3891,104.852,120.187,311.243,-163.465
1.28,118.996,27.1152,74.531,107.096,112.218,-398.492,-162.609
1.3,116.913,26.4478,76.7179,109.345,112.407,9.45566,-161.903
1.32,114.796,25.7437,78.9496,111.586,112.051,-17.784,-161.342
1.34,112.645,25.0081,81.2225,113.641,102.785,-463.295,-160.919
1.36,110.461,24.2458,83.5355,115.652,100.555,-111.48,-160.63
1.38,108.245,23.4622,85.8863,117.538,94.2819,-313.676,-160.469
1.4,105.996,22.6629,88.273,119.338,89.9821,-214.992,-160.423
1.42,103.716,21.8528,90.6929,120.996,82.9009,-354.06,-160.49
1.44,101.404,21.0369,93.1447,122.589,79.6699,-161.547,-160.662
1.46,99.0612,20.2205,95.6254,124.035,72.2887,-369.063,-160.93
1.48,96.6895,19.4084,98.1323,125.345,65.5203,-338.418,-161.285
1.5,94.2879,18.6046,100.665,126.623,63.8607,-82.9781,-161.725
1.52,91.8592,17.8142,103.219,127.705,54.1006,-488.006,-162.237
1.54,89.4046,17.0412,105.792,128.672,48.3795,-286.056,-162.813
1.56,86.9235,16.2887,108.385,129.634,48.1062,-13.6638,-163.454
1.58,84.4262,15.5628,110.986,130.033,19.9549,-1407.57,-164.142
1.6,81.9269,14.8696,113.579,129.685,-17.4347,-1869.48,-164.867
1.62,79.4396,14.2142,116.152,128.611,-53.7073,-1813.63,-165.62
1.64,76.9799,13.601,118.687,126.747,-93.165,-1972.89,-166.388
1.66,74.5575,13.0316,121.175,124.424,-116.18,-1150.74,-167.16
1.68,72.1751,12.5053,123.615,121.99,-121.665,-274.274,-167.93
1.7,69.8349,12.0212,126.005,119.485,-125.251,-179.309,-168.693
1.72,67.5399,11.5779,128.342,116.871,-130.71,-272.941,-169.442
1.74,65.2916,11.1737,130.626,114.217,-132.686,-98.7851,-170.174
1.76,63.092,10.8068,132.856,111.502,-135.783,-154.85,-170.885
1.78,60.9426,10.4752,135.031,108.742,-137.964,-109.042,-171.572
1.8,58.8452,10.1768,137.15,105.922,-141.024,-153.015,-172.231
1.82,56.8001,9.90942,139.212,103.129,-139.66,68.2092,-172.864
1.84,54.8091,9.67085,141.217,100.26,-143.445,-189.245,-173.466
1.86,52.8725,9.45891,143.166,97.4076,-142.616,41.4501,-174.038
1.88,50.9913,9.27148,145.056,94.5294,-143.907,-64.5478,-174.578
1.9,49.1654,9.10648,146.889,91.6631,-143.317,29.4809,-175.087
1.92,47.3954,8.96185,148.665,88.7965,-143.327,-0.470825,-175.565
1.94,45.6818,8.83569,150.384,85.9126,-144.198,-43.5536,-176.011
1.96,44.0241,8.72633,152.045,83.0638,-142.441,87.8097,-176.427
1.98,42.4227,8.63188,153.649,80.2097,-142.705,-13.1751,-176.813
2,40.8774,8.55074,155.196,77.3731,-141.828,43.853,-177.17
2.02,39.3882,8.48144,156.687,74.5378,-141.768,2.99509,-177.498
2.04,37.9542,8.4227,158.122,71.7625,-138.763,150.233,-177.801
2.06,36.577,8.37325,159.501,68.9063,-142.808,-202.256,-178.074
2.08,35.2543,8.33168,160.824,66.1642,-137.108,285.007,-178.324
2.1,33.9867,8.29722,162.092,63.4042,-137.996,-44.406,-178.55
2.12,32.7733,8.26877,163.306,60.6868,-135.872,106.209,-178.755
2.14,31.6151,8.24547,164.464,57.9208,-138.297,-121.247,-178.936
2.16,30.5105,8.22664,165.569,55.2413,-133.975,216.089,-179.098
2.18,29.4589,8.21151,166.621,52.583,-132.918,52.8566,-179.243
2.2,28.4617,8.19945,167.618,49.8651,-135.892,-148.671,-179.367
2.22,27.516,8.19001,168.564,47.2883,-128.844,352.392,-179.479
2.24,26.6241,8.18268,169.456,44.5964,-134.591,-287.377,-179.572
2.26,25.7837,8.17712,170.296,42.0202,-128.81,289.05,-179.653
2.28,24.9946,8.1729,171.085,39.4543,-128.297,25.6817,-179.723
2.3,24.2565,8.16972,171.823,36.9035,-127.537,37.9653,-179.783
2.32,23.5707,8.16748,172.509,34.2926,-130.545,-150.385,-179.829
2.34,22.9346,8.16585,173.145,31.8022,-124.52,301.26,-179.869
2.36,22.3481,8.16472,173.732,29.3269,-123.766,37.7023,-179.904
2.38,21.8129,8.16401,174.267,26.7613,-128.281,-225.75,-179.928
2.4,21.3275,8.16351,174.752,24.271,-124.517,188.216,-179.946
2.42,20.8912,8.1631,175.188,21.8108,-123.011,75.2834,-179.96
2.44,20.5039,8.1629,175.576,19.3656,-122.258,37.6264,-179.971
2.46,20.1649,8.1628,175.915,16.9505,-120.753,75.2793,-179.981
2.48,19.8757,8.1628,176.204,14.4602,-124.516,-188.166,-179.985
2.5,19.6345,8.1627,176.445,12.0602,-120,225.806,-179.989
2.52,19.4419,8.1627,176.638,9.63011,-121.505,-75.2725,-179.991
2.54,19.2973,8.1627,176.782,7.23011,-120,75.2699,-179.993
2.56,19.2008,8.1627,176.879,4.82505,-120.253,-12.6337,-179.994
2.58,19.146,8.1627,176.934,2.74005,-104.25,800.134,-179.995
2.6,19.1215,8.1627,176.958,1.225,-75.7527,1424.87,-179.995
2.62,19.115,8.1627,176.965,0.325,-45,1537.63,-179.995
