"time","x","y","position","velocity","acceleration","jerk","heading"
0,17.9747,27.7916,0,0,0,0,0
0.02,18.1644,27.7916,0.189656,9.48281,474.14,23707,-0.000179295
0.04,18.3541,27.7916,0.379412,9.48781,0.25,-23694.5,-0.00035859
0.06,18.5438,27.7916,0.569069,9.48281,-0.25,-25,-0.000537885
0.08,18.7334,27.7916,0.758725,9.48281,-9.05942e-12,12.5,-0.00071718
0.1,18.9232,27.7916,0.948481,9.48781,0.249999,12.5,-0.000896476
0.12,19.3085,27.7916,1.3338,19.2658,488.898,24432.4,-0.00165251
0.14,19.7663,27.7916,1.79156,22.8882,181.119,-15388.9,-0.00262236
0.16,20.2999,27.7916,2.32519,26.6816,189.671,427.579,-0.00413083
0.18,20.8963,27.7915,2.92161,29.8211,156.977,-1634.7,-0.00608636
0.2,21.5895,27.7914,3.61476,34.6573,241.809,4241.59,-0.00917352
0.22,22.3405,27.7913,4.36577,37.5507,144.67,-4856.93,-0.01321
0.24,23.1612,27.7911,5.18648,41.0355,174.241,1478.57,-0.0184884
0.26,24.0556,27.7907,6.08087,44.7195,184.198,497.807,-0.0250807
0.28,25.0244,27.7903,7.04968,48.4403,186.041,92.1567,-0.0332434
0.3,26.0668,27.7896,8.09207,52.1195,183.962,-103.931,-0.0435151
0.32,27.1815,27.7886,9.20681,55.737,180.874,-154.421,-0.0560408
0.34,28.3671,27.7873,10.3924,59.2804,177.169,-185.246,-0.0707469
0.36,29.622,27.7856,11.6473,62.7432,173.141,-201.388,-0.0880888
0.38,30.9443,27.7833,12.9696,66.1177,168.727,-220.711,-0.108337
0.4,32.3466,27.7803,14.3719,70.1119,199.709,1549.09,-0.131932
0.42,33.8136,27.7767,15.8389,73.3511,161.961,-1887.38,-0.158871
0.44,35.3558,27.772,17.3811,77.1122,188.054,1304.63,-0.189825
0.46,36.9644,27.7662,18.9897,80.4287,165.824,-1111.46,-0.224354
0.48,38.6485,27.759,20.6739,84.2074,188.938,1155.67,-0.263916
0.5,40.4022,27.7503,22.4276,87.6852,173.889,-752.425,-0.307779
0.52,42.2257,27.7398,24.2511,91.1777,174.624,36.7296,-0.356795
0.54,44.1199,27.7271,26.1453,94.7105,176.642,100.918,-0.410949
0.56,46.0849,27.712,28.1104,98.2558,177.262,30.9879,-0.470876
0.58,48.1209,27.6941,30.1464,101.8,177.212,-2.49707,-0.536679
0.6,50.2273,27.673,32.253,105.329,176.435,-38.8763,-0.608842
0.62,52.4039,27.6484,34.4297,108.836,175.374,-53.0507,-0.687487
0.64,54.6499,27.6199,36.6759,112.309,173.642,-86.5618,-0.773032
0.66,56.9673,27.5867,38.9935,115.879,178.478,241.787,-0.865803
0.68,59.3547,27.5486,41.3813,119.389,175.511,-148.329,-0.966198
0.7,61.8111,27.5049,43.838,122.836,172.361,-157.504,-1.07413
0.72,64.3389,27.4549,46.3663,126.415,178.932,328.545,-1.19038
0.74,66.9357,27.3982,48.9637,129.873,172.909,-301.157,-1.31467
0.76,69.6016,27.3339,51.6304,133.332,172.978,3.42666,-1.44742
0.78,72.3388,27.2614,54.3686,136.911,178.951,298.646,-1.58879
0.8,75.1452,27.1799,57.1762,140.378,173.315,-281.759,-1.73875
0.82,78.021,27.0887,60.0534,143.864,174.296,49.01,-1.89711
0.84,80.9665,26.9868,63.0007,147.364,175.007,35.5715,-2.06372
0.86,83.9817,26.8736,66.018,150.866,175.107,4.97633,-2.23821
0.88,87.0666,26.7482,69.1054,154.37,175.213,5.34478,-2.41984
0.9,90.2212,26.6097,72.2631,157.883,175.641,21.3773,-2.60778
0.92,93.4466,26.4573,75.4921,161.45,178.37,136.457,-2.80071
0.94,96.7428,26.2903,78.7925,165.018,178.366,-0.192678,-2.99688
0.96,100.109,26.1083,82.1636,168.556,176.917,-72.487,-3.194
0.98,103.548,25.9105,85.6087,172.256,184.979,403.136,-3.38902
1,107.059,25.6967,89.126,175.865,180.473,-225.297,-3.57845
1.02,110.608,25.4692,92.6821,177.807,97.1021,-4168.56,-3.75538
1.04,114.161,25.2308,96.2434,178.062,12.765,-4216.85,-3.91428
1.06,117.719,24.9829,99.8099,178.325,13.1127,17.3812,-4.0502
1.08,121.284,24.727,103.384,178.689,18.2065,254.694,-4.15851
1.1,124.856,24.4646,106.966,179.114,21.239,151.622,-4.2338
1.12,128.438,24.1981,110.557,179.551,21.8902,32.5591,-4.27023
1.14,132.029,23.9298,114.158,180.052,25.0176,156.371,-4.26601
1.16,135.631,23.6624,117.77,180.616,28.1996,159.099,-4.21511
1.18,139.245,23.3987,121.394,181.188,28.6302,21.5319,-4.11596
1.2,142.872,23.1421,125.03,181.791,30.1365,75.3146,-3.96927
1.22,146.512,22.8955,128.679,182.432,32.0273,94.5387,-3.77118
1.24,150.164,22.6622,132.338,182.978,27.2967,-236.53,-3.52878
1.26,153.827,22.4453,136.007,183.468,24.5208,-138.792,-3.24204
1.28,157.501,22.2474,139.687,183.965,24.8551,16.714,-2.91837
1.3,161.184,22.0709,143.374,184.34,18.7263,-306.443,-2.56368
1.32,164.873,21.9178,147.066,184.644,15.2374,-174.441,-2.18393
1.34,168.568,21.7896,150.763,184.846,10.0625,-258.749,-1.78798
1.36,172.265,21.6873,154.462,184.928,4.12056,-297.095,-1.38207
1.38,175.965,21.6112,158.162,185.029,5.02596,45.2701,-0.973589
1.4,179.663,21.5615,161.861,184.915,-5.67798,-535.197,-0.56853
1.42,183.36,21.5377,165.558,184.84,-3.74417,96.6902,-0.172667
1.44,187.053,21.5389,169.251,184.671,-8.43485,-234.534,0.209693
1.46,190.743,21.5643,172.94,184.473,-9.92054,-74.2842,0.575464
1.48,194.427,21.6126,176.625,184.233,-11.989,-103.422,0.920692
1.5,198.105,21.6822,180.304,183.934,-14.9736,-149.233,1.24413
1.52,201.777,21.7717,183.977,183.663,-13.5197,72.6952,1.5437
1.54,205.442,21.8795,187.644,183.344,-15.9864,-123.334,1.8192
1.56,209.102,22.0038,191.305,183.06,-14.1663,91.0063,2.06937
1.58,212.755,22.1431,194.961,182.784,-13.807,17.9642,2.29474
1.6,216.4,22.2958,198.61,182.457,-16.3757,-128.435,2.4952
1.62,220.039,22.4601,202.253,182.127,-16.4685,-4.63782,2.67069
1.64,223.672,22.6346,205.89,181.854,-13.67,139.924,2.82184
1.66,227.298,22.8174,209.52,181.536,-15.9173,-112.369,2.94929
1.68,230.919,23.0074,213.146,181.262,-13.6987,110.934,3.05278
1.7,234.533,23.2028,216.765,180.998,-13.187,25.5849,3.13342
1.72,238.142,23.4024,220.38,180.728,-13.4676,-14.0298,3.19103
1.74,241.745,23.6045,223.988,180.415,-15.6681,-110.025,3.22644
1.76,245.342,23.8079,227.591,180.142,-13.6356,101.622,3.23916
1.78,248.934,24.0109,231.189,179.869,-13.6712,-1.777,3.2295
1.8,252.521,24.2125,234.782,179.646,-11.124,127.356,3.19782
1.82,256.102,24.411,238.368,179.31,-16.8322,-285.409,3.14331
1.84,259.678,24.6051,241.949,179.073,-11.8449,249.367,3.06622
1.86,263.248,24.7934,245.525,178.772,-15.0495,-160.23,2.96574
1.88,266.813,24.9744,249.094,178.46,-15.6195,-28.5,2.84115
1.9,270.373,25.1465,252.658,178.187,-13.6439,98.7772,2.6919
1.92,273.926,25.3083,256.214,177.839,-17.3958,-187.593,2.51613
1.94,277.473,25.4581,259.765,177.53,-15.4477,97.4071,2.3131
1.96,281.013,25.5941,263.308,177.144,-19.315,-193.366,2.08071
1.98,284.547,25.7145,266.843,176.78,-18.1688,57.3098,1.8168
2,288.073,25.8175,270.371,176.391,-19.4708,-65.1019,1.51919
2.02,291.59,25.9007,273.889,175.903,-24.3869,-245.804,1.18382
2.04,295.097,25.962,277.397,175.383,-25.9835,-79.8266,0.807782
2.06,298.594,25.9987,280.894,174.857,-26.3096,-16.3056,0.386019
2.08,302.079,26.0081,284.378,174.217,-31.9979,-284.417,-0.087367
2.1,305.549,25.9871,287.849,173.516,-35.0599,-153.099,-0.618364
2.12,309.003,25.9322,291.303,172.729,-39.3573,-214.869,-1.21538
2.14,312.477,25.8426,294.778,173.75,51.0361,4519.67,-1.7237
2.16,315.956,25.7231,298.259,174.053,15.167,-1793.45,-2.21098
2.18,319.437,25.5742,301.743,174.195,7.11016,-402.841,-2.68731
2.2,322.919,25.3965,305.23,174.334,6.95149,-7.93359,-3.14974
2.22,326.404,25.191,308.721,174.577,12.1546,260.155,-3.59459
2.24,329.893,24.9587,312.218,174.805,11.3686,-39.2982,-4.01966
2.26,333.385,24.7009,315.719,175.071,13.3226,97.699,-4.42218
2.28,336.881,24.4187,319.227,175.414,17.1493,191.335,-4.80027
2.3,340.382,24.1137,322.741,175.676,13.1228,-201.326,-5.15248
2.32,343.887,23.7874,326.261,176.02,17.1884,203.281,-5.47615
2.34,347.398,23.4416,329.789,176.413,19.6316,122.158,-5.77114
2.36,350.915,23.0777,333.325,176.77,17.8328,-89.9381,-6.03603
2.38,354.437,22.6978,336.867,177.123,17.6779,-7.74275,-6.27055
2.4,357.965,22.3035,340.418,177.519,19.8054,106.37,-6.4747
2.42,361.499,21.8968,343.975,177.875,17.8083,-99.8532,-6.64696
2.44,365.041,21.4795,347.541,178.308,21.6178,190.475,-6.78847
2.46,368.588,21.0536,351.114,178.635,16.3718,-262.297,-6.89887
2.48,372.143,20.6208,354.695,179.043,20.4142,202.118,-6.97875
2.5,375.704,20.1831,358.283,179.383,16.9913,-171.143,-7.02879
2.52,379.271,19.7424,361.877,179.727,17.1771,9.28949,-7.0477
2.54,382.847,19.3005,365.48,180.136,20.4409,163.19,-7.03736
2.56,386.429,18.8593,369.089,180.48,17.2375,-160.169,-6.998
2.58,390.02,18.4206,372.707,180.862,19.076,91.9205,-6.92983
2.6,393.617,17.9863,376.33,181.175,15.6589,-170.851,-6.83346
2.62,397.223,17.558,379.961,181.536,18.0363,118.871,-6.70827
2.64,400.836,17.1377,383.598,181.867,16.5823,-72.7033,-6.55589
2.66,404.456,16.7273,387.242,182.192,16.2446,-16.8815,-6.37608
2.68,408.085,16.3283,390.892,182.517,16.2471,0.124306,-6.16829
2.7,411.722,15.9425,394.55,182.873,17.7776,76.5251,-5.93347
2.72,415.366,15.5719,398.213,183.176,15.134,-132.18,-5.67135
2.74,419.021,15.2182,401.885,183.572,19.8021,233.406,-5.38208
2.76,422.683,14.8833,405.562,183.879,15.3495,-222.633,-5.06447
2.78,426.354,14.5689,409.247,184.224,17.2573,95.3884,-4.71929
2.8,430.033,14.277,412.937,184.519,14.7573,-124.999,-4.34646
2.82,433.722,14.0095,416.636,184.941,21.0949,316.88,-3.94381
2.84,437.419,13.7683,420.341,185.258,15.8419,-262.646,-3.51197
2.86,441.126,13.5556,424.054,185.638,19.0121,158.508,-3.05014
2.88,444.842,13.3734,427.775,186.04,20.0991,54.3494,-2.55708
2.9,448.568,13.2239,431.503,186.41,18.499,-80.0039,-2.03201
2.92,452.302,13.1094,435.239,186.816,20.3067,90.3836,-1.47285
2.94,456.047,13.0323,438.985,187.286,23.5133,160.332,-0.879586
2.96,459.8,12.9951,442.738,187.647,18.0565,-272.843,-0.250274
2.98,463.563,13.0004,446.501,188.163,25.788,386.576,0.417872
3,467.336,13.0509,450.275,188.665,25.0806,-35.3678,1.12577
3.02,471.118,13.1497,454.058,189.178,25.6876,30.3459,1.87611
3.04,474.909,13.2999,457.852,189.693,25.753,3.27297,2.67027
3.06,478.709,13.5048,461.658,190.287,29.6936,197.03,3.51141
3.08,482.518,13.7679,465.475,190.873,29.2783,-20.7669,4.40318
3.1,486.335,14.0931,469.306,191.533,33.0082,186.496,5.34721
3.12,490.159,14.4846,473.15,192.223,34.5122,75.2,6.34892
3.14,493.991,14.9464,477.009,192.957,36.7064,109.709,7.41005
3.16,497.829,15.4834,480.885,193.783,41.2823,228.795,8.5353
3.18,501.671,16.1005,484.776,194.561,38.9064,-118.796,9.72897
3.2,505.516,16.8032,488.685,195.443,44.1106,260.213,10.9946
3.22,509.364,17.5971,492.614,196.436,49.6045,274.693,12.3388
3.24,513.21,18.4881,496.562,197.409,48.6564,-47.4022,13.7643
3.26,517.053,19.4828,500.532,198.475,53.311,232.728,15.2772
3.28,520.889,20.5879,504.523,199.592,55.8611,127.505,16.8822
3.3,524.713,21.8104,508.539,200.766,58.6763,140.76,18.5825
3.32,528.523,23.1576,512.58,202.042,63.8191,257.142,20.3869
3.34,532.31,24.6367,516.645,203.293,62.5651,-62.6997,22.2952
3.36,536.07,26.2549,520.738,204.639,67.2735,235.417,24.3107
3.38,539.791,28.0192,524.857,205.942,65.1557,-105.889,26.4345
3.4,543.467,29.9358,529.002,207.261,65.9541,39.9188,28.6665
3.42,547.085,32.0108,533.173,208.542,64.0697,-94.2189,31.0072
3.44,550.635,34.2476,537.369,209.803,63.0369,-51.6374,33.4462
3.46,554.103,36.6496,541.588,210.921,55.8793,-357.881,35.9795
3.48,557.476,39.217,545.827,211.964,52.1539,-186.269,38.5949
3.5,560.739,41.9481,550.081,212.73,38.3108,-692.155,41.2764
3.52,563.878,44.8389,554.349,213.377,32.3563,-297.728,44.0102
3.54,566.88,47.8821,558.624,213.742,18.2472,-705.453,46.7736
3.56,569.733,51.0687,562.901,213.851,5.44511,-640.105,49.5464
3.58,572.427,54.3868,567.175,213.705,-7.29414,-636.962,52.3062
3.6,574.954,57.8233,571.44,213.263,-22.0875,-739.667,55.0317
3.62,577.309,61.3633,575.692,212.594,-33.4583,-568.539,57.6999
3.64,579.488,64.9928,579.926,211.683,-45.5682,-605.498,60.2958
3.66,581.495,68.6959,584.138,210.588,-54.7545,-459.315,62.7998
3.68,583.329,72.4588,588.324,209.305,-64.141,-469.326,65.2005
3.7,584.997,76.269,592.483,207.976,-66.4551,-115.703,67.4909
3.72,586.505,80.1135,596.613,206.475,-75.0303,-428.76,69.6593
3.74,587.86,83.9824,600.712,204.973,-75.092,-3.08418,71.7044
3.76,589.072,87.8668,604.781,203.45,-76.1851,-54.6565,73.6246
3.78,590.149,91.7592,608.82,201.936,-75.6927,24.618,75.4203
3.8,591.1,95.6536,612.829,200.443,-74.6364,52.817,77.0946
3.82,591.936,99.5441,616.808,198.961,-74.1199,25.8277,78.6471
3.84,592.665,103.427,620.759,197.549,-70.5755,177.217,80.0845
3.86,593.295,107.3,624.682,196.169,-68.9947,79.0378,81.4092
3.88,593.835,111.16,628.58,194.896,-63.6833,265.572,82.6254
3.9,594.294,115.004,632.452,193.573,-66.1103,-121.348,83.7388
3.92,594.679,118.832,636.299,192.367,-60.3088,290.074,84.7509
3.94,594.998,122.644,640.124,191.23,-56.8427,173.304,85.668
3.96,595.257,126.435,643.924,190.039,-59.5555,-135.639,86.4924
3.98,595.464,130.209,647.704,188.972,-53.34,310.777,87.2252
4,595.624,133.963,651.461,187.852,-56.0104,-133.52,87.8708
4.02,595.744,137.698,655.198,186.868,-49.2315,338.944,88.4295
4.04,595.829,141.413,658.914,185.805,-53.1454,-195.696,88.9048
4.06,595.887,145.108,662.609,184.748,-52.8599,14.2749,89.2957
4.08,595.923,148.782,666.284,183.735,-50.6369,111.151,89.6007
4.1,595.94,152.436,669.938,182.698,-51.8208,-59.1966,89.8214
4.12,595.947,156.069,673.571,181.633,-53.2896,-73.4412,89.955
4.14,595.947,159.68,677.182,180.556,-53.8342,-27.2301,90.0005
4.16,595.947,163.291,680.792,180.53,-1.28282,2627.57,90.0439
4.18,595.941,166.92,684.421,181.45,46.0106,2364.67,90.1626
4.2,595.925,170.567,688.068,182.354,45.1582,-42.622,90.3551
4.22,595.893,174.233,691.735,183.311,47.8922,136.699,90.6256
4.24,595.843,177.916,695.418,184.171,42.9597,-246.623,90.9697
4.26,595.767,181.618,699.121,185.161,49.5041,327.221,91.389
4.28,595.661,185.338,702.842,186.047,44.2986,-260.276,91.8862
4.3,595.52,189.077,706.584,187.072,51.2508,347.61,92.4627
4.32,595.337,192.833,710.345,188.052,49.008,-112.141,93.1248
4.34,595.107,196.61,714.128,189.177,56.24,361.6,93.8732
4.36,594.823,200.404,717.933,190.226,52.4442,-189.789,94.714
4.38,594.477,204.218,721.763,191.508,64.1224,583.912,95.6531
4.4,594.064,208.05,725.617,192.725,60.8667,-162.783,96.6957
4.42,593.573,211.902,729.5,194.121,69.8011,446.72,97.8521
4.44,592.996,215.771,733.412,195.599,73.8833,204.108,99.1274
4.46,592.323,219.656,737.355,197.148,77.425,177.084,100.532
4.48,591.545,223.555,741.331,198.814,83.3394,295.719,102.074
4.5,590.649,227.466,745.343,200.606,89.6019,313.126,103.761
4.52,589.623,231.386,749.395,202.573,98.3437,437.094,105.607
4.54,588.454,235.305,753.485,204.515,97.0809,-63.1417,107.618
4.56,587.13,239.22,757.618,206.639,106.22,456.949,109.8
4.58,585.636,243.12,761.794,208.808,108.436,110.793,112.157
4.6,583.96,246.991,766.013,210.932,106.182,-112.705,114.692
4.62,582.09,250.821,770.274,213.08,107.443,63.0621,117.399
4.64,580.016,254.589,774.575,215.058,98.873,-428.494,120.27
4.66,577.733,258.275,778.911,216.794,86.7841,-604.445,123.285
4.68,575.239,261.858,783.276,218.262,73.4112,-668.645,126.421
4.7,572.536,265.314,787.664,219.388,56.3085,-855.136,129.644
4.72,569.634,268.62,792.063,219.957,28.4467,-1393.09,132.919
4.74,566.546,271.757,796.465,220.103,7.31584,-1056.54,136.202
4.76,563.289,274.706,800.859,219.68,-21.1444,-1423.01,139.453
4.78,559.886,277.458,805.235,218.803,-43.8643,-1135.99,142.632
4.8,556.358,280.003,809.586,217.547,-62.8169,-947.635,145.708
4.82,552.729,282.344,813.904,215.912,-81.7425,-946.276,148.646
4.84,549.019,284.48,818.184,214.015,-94.8307,-654.409,151.434
4.86,545.25,286.421,822.425,212.003,-100.637,-290.294,154.056
4.88,541.435,288.175,826.623,209.928,-103.726,-154.458,156.505
4.9,537.591,289.755,830.779,207.81,-105.92,-109.712,158.785
4.92,533.727,291.173,834.895,205.779,-101.544,218.776,160.894
4.94,529.854,292.441,838.971,203.782,-99.8474,84.8518,162.842
4.96,525.977,293.571,843.009,201.915,-93.3305,325.846,164.637
4.98,522.102,294.574,847.012,200.162,-87.6616,283.443,166.288
5,518.231,295.464,850.983,198.563,-79.9381,386.178,167.805
5.02,514.371,296.248,854.922,196.953,-80.4999,-28.0915,169.197
5.04,510.519,296.938,858.836,195.66,-64.6702,791.485,170.477
5.06,506.68,297.541,862.722,194.319,-67.0609,-119.535,171.651
5.08,502.852,298.065,866.585,193.176,-57.1295,496.571,172.728
5.1,499.037,298.518,870.427,192.086,-54.5209,130.427,173.717
5.12,495.236,298.906,874.248,191.052,-51.7015,140.972,174.623
5.14,491.446,299.234,878.052,190.183,-43.4139,414.381,175.455
5.16,487.671,299.508,881.838,189.283,-44.9984,-79.228,176.217
5.18,483.906,299.735,885.609,188.564,-35.9591,451.969,176.916
5.2,480.154,299.915,889.366,187.839,-36.2444,-14.2689,177.557
5.22,476.414,300.055,893.108,187.134,-35.2569,49.376,178.143
5.24,472.684,300.158,896.84,186.568,-28.3081,347.44,178.679
5.26,468.966,300.228,900.558,185.943,-31.2348,-146.333,179.167
5.28,465.257,300.267,904.267,185.447,-24.8246,320.51,179.612
5.3,461.558,300.279,907.966,184.949,-24.8858,-3.06143,-179.983
5.32,457.868,300.266,911.656,184.473,-23.8149,53.5443,-179.617
5.34,454.188,300.23,915.337,184.052,-21.0135,140.07,-179.286
5.36,450.516,300.175,919.009,183.599,-22.682,-83.4211,-178.989
5.38,446.852,300.102,922.674,183.236,-18.1492,226.639,-178.723
5.4,443.195,300.012,926.331,182.887,-17.437,35.6085,-178.487
5.42,439.546,299.909,929.983,182.563,-16.1807,62.8175,-178.279
5.44,435.903,299.793,933.627,182.202,-18.0922,-95.5795,-178.098
5.46,432.267,299.668,937.265,181.925,-13.8344,212.894,-177.941
5.48,428.638,299.533,940.897,181.587,-16.8741,-151.989,-177.809
5.5,425.013,299.391,944.525,181.382,-10.2725,330.083,-177.699
5.52,421.395,299.242,948.146,181.065,-15.8455,-278.653,-177.612
5.54,417.782,299.089,951.761,180.779,-14.2984,77.3555,-177.545
5.56,414.174,298.933,955.374,180.605,-8.68093,280.875,-177.497
5.58,410.57,298.774,958.981,180.378,-11.3884,-135.374,-177.468
5.6,406.971,298.614,962.584,180.124,-12.6614,-63.6514,-177.456
5.62,403.375,298.455,966.183,179.952,-8.60879,202.632,-177.462
5.64,399.784,298.296,969.777,179.719,-11.6605,-152.587,-177.483
5.66,396.196,298.14,973.368,179.569,-7.4957,208.242,-177.52
5.68,392.613,297.986,976.955,179.342,-11.3737,-193.903,-177.571
5.7,389.031,297.836,980.54,179.226,-5.76122,280.626,-177.635
5.72,385.453,297.691,984.121,179.057,-8.45686,-134.782,-177.712
5.74,381.878,297.551,987.699,178.913,-7.2178,61.9532,-177.8
5.76,378.304,297.417,991.275,178.817,-4.79633,121.073,-177.899
5.78,374.732,297.289,994.849,178.684,-6.65858,-93.1127,-178.008
5.8,371.163,297.168,998.421,178.574,-5.49696,58.0814,-178.125
5.82,367.595,297.055,1001.99,178.462,-5.62131,-6.21762,-178.25
5.84,364.029,296.95,1005.56,178.378,-4.19753,71.1888,-178.381
5.86,360.463,296.853,1009.12,178.367,-0.511139,184.32,-178.516
5.88,356.899,296.765,1012.69,178.295,-3.63866,-156.376,-178.656
5.9,353.334,296.686,1016.26,178.26,-1.74986,94.4405,-178.798
5.92,349.77,296.616,1019.82,178.25,-0.471902,63.8977,-178.94
5.94,346.204,296.554,1023.39,178.304,2.69482,158.336,-179.081
5.96,342.639,296.502,1026.95,178.284,-1.02646,-186.064,-179.219
5.98,339.072,296.457,1030.52,178.377,4.67099,284.873,-179.353
6,335.503,296.42,1034.09,178.458,4.04829,-31.135,-179.48
6.02,331.932,296.392,1037.66,178.552,4.70359,32.7651,-179.599
6.04,328.358,296.371,1041.23,178.696,7.1915,124.395,-179.706
6.06,324.781,296.355,1044.81,178.853,7.87701,34.2756,-179.8
6.08,321.2,296.345,1048.39,179.036,9.10881,61.59,-179.879
6.1,317.615,296.34,1051.98,179.255,10.9695,93.0361,-179.94
6.12,314.025,296.337,1055.57,179.499,12.2117,62.1108,-179.981
6.14,310.43,296.337,1059.16,179.78,14.0468,91.7514,-179.999
6.16,306.83,296.337,1062.76,180.012,11.6064,-122.017,-179.998
6.18,303.227,296.336,1066.37,180.11,4.88727,-335.959,-179.989
6.2,299.624,296.335,1069.97,180.183,3.66519,-61.1039,-179.974
6.22,296.018,296.333,1073.57,180.269,4.2771,30.5953,-179.952
6.24,292.412,296.329,1077.18,180.33,3.05849,-60.9303,-179.925
6.26,288.804,296.324,1080.79,180.366,1.77918,-63.9655,-179.891
6.28,285.195,296.315,1084.4,180.477,5.57377,189.729,-179.852
6.3,281.584,296.305,1088.01,180.538,3.06092,-125.642,-179.808
6.32,277.972,296.291,1091.62,180.612,3.69852,31.8801,-179.758
6.34,274.358,296.274,1095.23,180.674,3.08662,-30.5954,-179.703
