"time","x","y","position","velocity","acceleration","jerk","heading"
0,231.695,116.994,0,0,0,0,-42.3
0.02,231.811,116.89,0.155575,7.77876,388.938,19446.9,-42.302
0.04,231.925,116.785,0.311086,7.77553,-0.161287,-19455,-42.304
0.06,232.04,116.68,0.466661,7.77876,0.161287,16.1287,-42.306
0.08,232.155,116.576,0.621496,7.74175,-1.85057,-100.593,-42.308
0.1,232.27,116.472,0.777071,7.77876,1.85057,185.057,-42.31
0.12,232.385,116.366,0.932608,7.77684,-0.0958371,-97.3204,-42.3121
0.14,232.589,116.181,1.20834,13.7867,300.493,15029.4,-42.3188
0.16,232.868,115.927,1.58559,18.8626,253.795,-2334.88,-42.3294
0.18,233.146,115.673,1.96211,18.8256,-1.84773,-12782.1,-42.34
0.2,233.5,115.352,2.44002,23.8958,253.506,12767.7,-42.3592
0.22,233.864,115.019,2.93311,24.6541,37.9175,-10779.5,-42.3798
0.24,234.284,114.635,3.50285,28.4871,191.65,7686.64,-42.4093
0.26,234.723,114.235,4.09607,29.6611,58.6999,-6647.52,-42.4419
0.28,235.215,113.785,4.76385,33.3889,186.391,6384.54,-42.4864
0.3,235.738,113.305,5.47342,35.4784,104.475,-4095.78,-42.5366
0.32,236.292,112.796,6.22557,37.6074,106.45,98.7302,-42.5927
0.34,236.885,112.251,7.03129,40.2861,133.934,1374.2,-42.6561
0.36,237.519,111.666,7.89333,43.1019,140.788,342.71,-42.7267
0.38,238.186,111.048,8.80271,45.4689,118.354,-1121.71,-42.8026
0.4,238.887,110.398,9.75889,47.8091,117.009,-67.2375,-42.882
0.42,239.623,109.714,10.7633,50.2218,120.636,181.378,-42.9627
0.44,240.392,108.997,11.8154,52.6059,119.203,-71.6717,-43.0425
0.46,241.195,108.246,12.9142,54.9401,116.707,-124.791,-43.1181
0.48,242.029,107.464,14.0578,57.1802,112.009,-234.886,-43.1831
0.5,242.893,106.652,15.2436,59.2874,105.356,-332.648,-43.2309
0.52,243.791,105.808,16.4761,61.6232,116.789,571.642,-43.2518
0.54,244.716,104.938,17.7458,63.4885,93.2662,-1176.15,-43.2399
0.56,245.665,104.045,19.0493,65.1758,84.3637,-445.13,-43.185
0.58,246.641,103.131,20.3857,66.8167,82.0452,-115.921,-43.0624
0.6,247.637,102.203,21.7473,68.0802,63.1768,-943.42,-42.853
0.62,248.652,101.266,23.1287,69.0728,49.6327,-677.207,-42.546
0.64,249.684,100.325,24.5248,69.8028,36.4992,-656.672,-42.0958
0.66,250.727,99.3915,25.9253,70.0246,11.0884,-1270.54,-41.4902
0.68,251.778,98.4744,27.3199,69.7329,-14.5854,-1283.69,-40.6729
0.7,252.83,97.5854,28.6973,68.8668,-43.3064,-1436.05,-39.6087
0.72,253.878,96.7378,30.0448,67.3754,-74.5707,-1563.22,-38.251
0.74,254.918,95.9406,31.3552,65.5227,-92.6307,-902.999,-36.5634
0.76,255.944,95.2054,32.6174,63.1094,-120.667,-1401.81,-34.5073
0.78,256.954,94.5386,33.8283,60.5446,-128.238,-378.545,-32.1019
0.8,257.926,93.9584,34.9597,56.5664,-198.912,-3533.72,-29.4617
0.82,258.854,93.4616,36.0128,52.6569,-195.474,171.91,-26.7061
0.84,259.756,93.0347,37.0108,49.8996,-137.865,2880.44,-23.9258
0.86,260.65,92.6632,37.9784,48.3821,-75.8768,3099.42,-21.2182
0.88,261.552,92.3369,38.9376,47.9593,-21.1388,2736.9,-18.65
0.9,262.461,92.0517,39.8908,47.6576,-15.0858,302.651,-16.2533
0.92,263.394,91.7995,40.8574,48.3325,33.7457,2441.57,-14.0851
0.94,264.347,91.5782,41.8355,48.903,28.5225,-261.162,-12.1463
0.96,265.317,91.3855,42.8238,49.417,25.7002,-141.116,-10.4261
0.98,266.297,91.219,43.8187,49.7449,16.3987,-465.071,-8.92209
1,267.283,91.0765,44.815,49.8131,3.40645,-649.614,-7.59439
1.02,268.268,90.9558,45.8074,49.6196,-9.67177,-653.911,-6.44759
1.04,269.247,90.8544,46.7913,49.1948,-21.2388,-578.353,-5.45157
1.06,270.215,90.7698,47.7633,48.6026,-29.6136,-418.74,-4.58638
1.08,271.17,90.6998,48.72,47.8343,-38.4153,-440.083,-3.8438
1.1,272.103,90.6425,49.6557,46.7847,-52.4772,-703.097,-3.20448
1.12,273.013,90.5964,50.5659,45.5114,-63.6669,-559.482,-2.65394
1.14,273.894,90.5594,51.4481,44.1093,-70.105,-321.907,-2.18144
1.16,274.745,90.5302,52.2998,42.5871,-76.1118,-300.339,-1.77722
1.18,275.565,90.5072,53.1199,41.0042,-79.1404,-151.429,-1.44387
1.2,276.35,90.4895,53.9056,39.2848,-85.9738,-341.671,-1.16303
1.22,277.1,90.4761,54.6555,37.4924,-89.6205,-182.337,-0.925129
1.24,277.814,90.466,55.3696,35.7059,-89.3221,14.9226,-0.72284
1.26,278.495,90.4586,56.0505,34.0458,-83.0049,315.858,-0.550469
1.28,279.12,90.4534,56.6751,31.2316,-140.713,-2885.39,-0.422922
1.3,279.713,90.4497,57.2681,29.6473,-79.2144,3074.92,-0.315715
1.32,280.269,90.4471,57.8241,27.803,-92.2146,-650.014,-0.231885
1.34,280.766,90.4455,58.3211,24.8488,-147.711,-2774.83,-0.170665
1.36,281.239,90.4444,58.7944,23.6634,-59.2672,4422.21,-0.118208
1.38,281.642,90.4438,59.1972,20.1425,-176.044,-5838.84,-0.0832586
1.4,282.009,90.4434,59.5644,18.3559,-89.3323,4335.58,-0.0569697
1.42,282.376,90.4432,59.9315,18.3559,-0.000466264,4466.59,-0.0306807
1.44,282.531,90.4431,60.0863,7.74115,-530.737,-26536.8,-0.0261847
1.46,282.684,90.4431,60.2391,7.64249,-4.9328,26290.2,-0.0217915
1.48,282.838,90.4431,60.393,7.69249,2.49993,371.637,-0.0173982
1.5,282.991,90.443,60.5468,7.69249,0.000146134,-124.989,-0.013005
1.52,283.145,90.443,60.7007,7.69249,-8.08027e-05,-0.0113469,-0.0086118
1.54,283.299,90.443,60.8545,7.69249,-1.31231e-05,0.00338398,-0.00421858
