"time","x","y","position","velocity","acceleration","jerk","heading"
0,16.1052,28.4148,0,0,0,0,0
0.02,16.2946,28.4148,0.189441,9.47205,473.602,23680.1,-0.00106007
0.04,16.4841,28.4148,0.378882,9.47205,6.10887e-06,-23680.1,-0.00212013
0.06,16.6736,28.4148,0.568423,9.47705,0.249994,12.4994,-0.0031802
0.08,16.8631,28.4148,0.757864,9.47205,-0.249994,-24.9994,-0.00424026
0.1,17.0525,28.4148,0.947305,9.47205,-6.10777e-06,12.4994,-0.00530033
0.12,17.4367,28.4147,1.33152,19.2107,486.934,24346.7,-0.0105605
0.14,17.8932,28.4146,1.78795,22.8217,180.549,-15319.3,-0.0173778
0.16,18.4245,28.4144,2.31929,26.5668,187.257,335.398,-0.0282767
0.18,19.0179,28.4141,2.9127,29.6705,155.181,-1603.81,-0.0425635
0.2,19.7063,28.4135,3.60111,34.4205,237.504,4116.2,-0.0646196
0.22,20.4515,28.4125,4.34631,37.26,141.971,-4776.67,-0.0924544
0.24,21.2649,28.4109,5.1597,40.6692,170.464,1424.64,-0.128128
0.26,22.1498,28.4087,6.04459,44.2448,178.78,415.791,-0.173581
0.28,23.1066,28.4053,7.00146,47.8433,179.923,57.1549,-0.230632
0.3,24.1343,28.4006,8.02914,51.3843,177.05,-143.655,-0.301128
0.32,25.2309,28.394,9.1257,54.8278,172.174,-243.797,-0.387747
0.34,26.3949,28.3851,10.2897,58.2025,168.736,-171.9,-0.49082
0.36,27.6243,28.3734,11.5192,61.4745,163.6,-256.78,-0.611828
0.38,28.9172,28.3581,12.8122,64.6496,158.756,-242.197,-0.752207
0.4,30.2846,28.3382,14.1797,68.3745,186.246,1374.5,-0.918197
0.42,31.7118,28.3131,15.6072,71.3725,149.9,-1817.29,-1.10718
0.44,33.2078,28.2813,17.1035,74.8188,172.316,1120.78,-1.32561
0.46,34.7638,28.2421,18.6601,77.8252,150.321,-1099.77,-1.57325
0.48,36.3877,28.1936,20.2846,81.2296,170.216,994.754,-1.85672
0.5,38.0731,28.1343,21.971,84.32,154.52,-784.762,-2.1759
0.52,39.8196,28.0626,23.7191,87.402,154.102,-20.9292,-2.53402
0.54,41.6271,27.9765,25.5286,90.4779,153.795,-15.3528,-2.9347
0.56,43.495,27.8736,27.3993,93.533,152.756,-51.9325,-3.38135
0.58,45.422,27.7514,29.3302,96.5442,150.56,-109.786,-3.87747
0.6,47.407,27.6076,31.3204,99.5094,148.261,-114.982,-4.42573
0.62,49.4493,27.439,33.3697,102.465,147.782,-23.9193,-5.02548
0.64,51.5476,27.2427,35.4772,105.375,145.482,-115.001,-5.67851
0.66,53.7034,27.0151,37.6449,108.384,150.469,249.355,-6.38469
0.68,55.9157,26.7529,39.8727,111.394,150.471,0.103025,-7.13979
0.7,58.1843,26.4528,42.161,114.416,151.111,31.9559,-7.93672
0.72,60.5136,26.1109,44.5153,117.714,164.895,689.213,-8.76519
0.74,62.9046,25.724,46.9374,121.106,169.603,235.396,-9.60711
0.76,65.362,25.2895,49.4329,124.775,183.467,693.188,-10.4401
0.78,67.8947,24.8042,52.0117,128.941,208.275,1240.41,-11.2337
0.8,70.5081,24.2673,54.6797,133.398,222.854,728.956,-11.9549
0.82,73.2111,23.6789,57.446,138.315,245.888,1151.7,-12.5672
0.84,76.0132,23.0411,60.3198,143.689,268.669,1139.07,-13.0347
0.86,78.9229,22.3584,63.3085,149.437,287.389,935.997,-13.326
0.88,81.9481,21.6379,66.4183,155.49,302.675,764.298,-13.416
0.9,85.0926,20.8899,69.6505,161.612,306.08,170.265,-13.2987
0.92,88.3589,20.1262,73.0049,167.717,305.248,-41.6191,-12.9787
0.94,91.7449,19.3604,76.4765,173.58,293.166,-604.107,-12.4741
0.96,95.2457,18.6063,80.0576,179.055,273.732,-971.723,-11.8123
0.98,98.8573,17.8762,83.7422,184.232,258.873,-742.917,-11.0266
1,102.569,17.1817,87.5187,188.827,229.75,-1456.14,-10.1517
1.02,106.341,16.5376,91.3445,191.29,123.129,-5331.08,-9.22919
1.04,110.124,15.9544,95.1723,191.389,4.94489,-5909.19,-8.29714
1.06,113.912,15.4331,98.9967,191.22,-8.40358,-667.424,-7.3771
1.08,117.703,14.9725,102.815,190.912,-15.4216,-350.899,-6.48512
1.1,121.49,14.5708,106.624,190.446,-23.3022,-394.032,-5.63038
1.12,125.273,14.2252,110.422,189.897,-27.4391,-206.846,-4.82002
1.14,129.048,13.9326,114.208,189.327,-28.5264,-54.3642,-4.05566
1.16,132.815,13.6893,117.984,188.76,-28.3429,9.17734,-3.34063
1.18,136.571,13.4923,121.745,188.068,-34.5656,-311.136,-2.67996
1.2,140.261,13.3335,125.438,184.67,-169.908,-6767.13,-2.29493
1.22,143.92,13.1954,129.099,183.038,-81.625,4414.16,-2.04858
1.24,147.556,13.0709,132.738,181.954,-54.211,1370.7,-1.88912
1.26,151.176,12.9547,136.359,181.055,-44.9076,465.172,-1.80213
1.28,154.781,12.8425,139.966,180.347,-35.4012,475.317,-1.77264
1.3,158.375,12.731,143.562,179.793,-27.746,382.761,-1.78852
1.32,161.961,12.6176,147.149,179.371,-21.0859,333.005,-1.8392
1.34,165.542,12.5005,150.732,179.147,-11.1705,495.769,-1.91277
1.36,169.118,12.3784,154.311,178.914,-11.6696,-24.9519,-1.99796
1.38,172.695,12.2509,157.89,178.986,3.61055,764.007,-2.0821
1.4,176.276,12.1185,161.474,179.175,9.43646,291.295,-2.15152
1.42,179.864,11.9822,165.064,179.522,17.3589,396.121,-2.18897
1.44,183.464,11.8447,168.667,180.138,30.7721,670.661,-2.17617
1.46,187.083,11.7093,172.288,181.054,45.8373,753.262,-2.09199
1.48,190.725,11.5813,175.933,182.217,58.1287,614.567,-1.91145
1.5,194.398,11.4677,179.607,183.724,75.3534,861.235,-1.6055
1.52,198.11,11.3776,183.32,185.657,96.6454,1064.6,-1.14273
1.54,201.869,11.3227,187.08,187.976,115.961,965.769,-0.49145
1.56,205.658,11.3175,190.869,189.447,73.5348,-2121.3,0.3759
1.58,209.432,11.3765,194.643,188.712,-36.7518,-5514.33,1.46375
1.6,213.185,11.5139,198.398,187.776,-46.804,-502.61,2.77428
1.62,216.914,11.7429,202.134,186.804,-48.5928,-89.4422,4.29576
1.64,220.608,12.0748,205.843,185.441,-68.1406,-977.388,6.00498
1.66,224.255,12.5172,209.517,183.699,-87.0802,-946.982,7.86135
1.68,227.834,13.0728,213.139,181.104,-129.753,-2133.65,9.80479
1.7,231.332,13.7395,216.7,178.05,-152.717,-1148.18,11.7882
1.72,234.731,14.5099,220.186,174.274,-188.779,-1803.11,13.7576
1.74,238.017,15.3729,223.583,169.866,-220.42,-1582.06,15.6654
1.76,241.182,16.3149,226.885,165.103,-238.162,-887.114,17.4752
1.78,244.22,17.3212,230.085,159.997,-255.285,-856.151,19.1635
1.8,247.131,18.3778,233.182,154.845,-257.597,-115.557,20.7182
1.82,249.912,19.4701,236.17,149.42,-271.25,-682.656,22.1322
1.84,252.571,20.5867,239.054,144.192,-261.394,492.809,23.41
1.86,255.112,21.7172,241.835,139.037,-257.752,182.094,24.5548
1.88,257.536,22.8517,244.511,133.821,-260.789,-151.857,25.5762
1.9,259.853,23.9836,247.09,128.929,-244.607,809.089,26.4867
1.92,262.067,25.1064,249.572,124.111,-240.893,185.717,27.2932
1.94,264.18,26.2142,251.959,119.324,-239.395,74.8998,28.0083
1.96,266.199,27.3024,254.252,114.657,-233.311,304.18,28.6382
1.98,268.127,28.3682,256.455,110.154,-225.181,406.493,29.1951
2,269.97,29.4084,258.571,105.797,-217.833,367.425,29.6866
2.02,271.729,30.4205,260.601,101.483,-215.679,107.664,30.1179
2.04,273.409,31.4027,262.547,97.3218,-208.082,379.86,30.4992
2.06,275.01,32.3517,264.408,93.038,-214.193,-305.526,30.8301
2.08,276.533,33.2665,266.184,88.8283,-210.484,185.416,31.121
2.1,277.986,34.1477,267.883,84.9581,-193.508,848.83,31.3739
2.12,279.365,34.9927,269.501,80.8722,-204.294,-539.328,31.5953
2.14,280.673,35.8006,271.039,76.8894,-199.142,257.631,31.7852
2.16,281.913,36.5713,272.499,73.0035,-194.292,242.479,31.9495
2.18,283.088,37.3062,273.884,69.2795,-186.2,404.628,32.0925
2.2,284.189,37.9984,275.185,65.0417,-211.892,-1284.62,32.2105
2.22,285.228,38.6537,276.413,61.3841,-182.879,1450.63,32.3128
2.24,286.201,39.2707,277.566,57.6349,-187.462,-229.118,32.3984
2.26,287.11,39.8484,278.642,53.8334,-190.072,-130.524,32.4691
2.28,287.954,40.3863,279.643,50.0522,-189.064,50.4212,32.5283
2.3,288.734,40.8841,280.569,46.2599,-189.611,-27.3758,32.5762
2.32,289.451,41.3422,281.419,42.535,-186.244,168.351,32.6142
2.34,290.108,41.7633,282.2,39.0278,-175.361,544.177,32.6447
2.36,290.709,42.1486,282.914,35.7013,-166.326,451.723,32.6695
2.38,291.224,42.4788,283.525,30.5716,-256.483,-4507.85,32.687
2.4,291.703,42.7859,284.094,28.4489,-106.136,7517.36,32.7017
2.42,292.089,43.0345,284.554,22.986,-273.148,-8350.6,32.71
2.44,292.465,43.2761,285.001,22.3319,-32.7048,12022.2,32.7179
2.46,292.626,43.379,285.191,9.53162,-640.012,-30365.4,32.7202
2.48,292.786,43.4819,285.382,9.5304,-0.0610865,31997.6,32.7224
2.5,292.945,43.5847,285.572,9.48564,-2.23806,-108.849,32.7246
2.52,293.106,43.6876,285.762,9.53162,2.29915,226.861,32.7269
2.54,293.266,43.7905,285.953,9.5304,-0.0610865,-118.012,32.7291
