"time","x","y","position","velocity","acceleration","jerk","heading"
0,273.861,50.2943,0,0,0,0,114.5
0.02,273.793,50.4441,0.164487,8.22434,411.217,20560.8,114.521
0.04,273.724,50.5939,0.329298,8.24055,0.810697,-20520.3,114.542
0.06,273.656,50.7438,0.493938,8.232,-0.427523,-61.911,114.562
0.08,273.587,50.8935,0.658749,8.24055,0.4275,42.7511,114.583
0.1,273.519,51.0432,0.823053,8.21523,-1.26602,-84.6761,114.604
0.12,273.441,51.215,1.01184,9.4392,61.1984,3123.22,114.631
0.14,273.278,51.5697,1.40216,19.5163,503.858,22133,114.711
0.16,273.115,51.9242,1.79222,19.5027,-0.68152,-25227,114.791
0.18,272.924,52.3373,2.24753,22.7655,163.137,8190.92,114.944
0.2,272.717,52.7793,2.73533,24.3901,81.2327,-4095.21,115.133
0.22,272.487,53.2697,3.27732,27.0997,135.482,2712.44,115.423
0.24,272.241,53.783,3.84619,28.443,67.165,-3415.82,115.762
0.26,271.972,54.3377,4.46277,30.8292,119.307,2607.09,116.18
0.28,271.69,54.9054,5.09667,31.6951,43.2982,-3800.43,116.785
0.3,271.391,55.4904,5.75372,32.8526,57.8736,728.77,117.511
0.32,271.073,56.0912,6.43339,33.9834,56.5378,-66.7903,118.377
0.34,270.742,56.6929,7.12024,34.3425,17.9577,-1929,119.45
0.36,270.401,57.2846,7.80342,34.159,-9.17821,-1356.8,120.776
0.38,270.044,57.8671,8.48644,34.1511,-0.394181,439.202,122.342
0.4,269.683,58.4193,9.14599,32.9775,-58.6799,-2914.29,124.238
0.42,269.32,58.9336,9.77547,31.4737,-75.1871,-825.361,126.488
0.44,268.95,59.4133,10.3815,30.3019,-58.5941,829.652,129.064
0.46,268.582,59.8441,10.9478,28.3152,-99.3301,-2036.8,132.057
0.48,268.203,60.2416,11.497,27.4606,-42.7324,2829.88,135.351
0.5,267.791,60.625,12.0603,28.1627,35.1063,3891.94,138.807
0.52,267.305,61.0229,12.6878,31.3743,160.578,6273.6,142.263
0.54,266.704,61.4598,13.4311,37.1681,289.69,6455.57,145.454
0.56,265.912,61.9747,14.3759,47.2371,503.45,10688,148.081
0.58,264.925,62.5603,15.5232,57.3645,506.368,145.906,150.101
0.6,263.709,63.2384,16.9159,69.6387,613.71,5367.1,151.351
0.62,262.259,64.0197,18.5631,82.3597,636.051,1117.06,151.802
0.64,260.628,64.8931,20.4134,92.5151,507.773,-6413.91,151.657
0.66,258.836,65.871,22.4545,102.053,476.872,-1545.03,150.964
0.68,256.936,66.9467,24.6379,109.172,355.978,-6044.75,149.924
0.7,254.96,68.1205,26.9363,114.918,287.274,-3435.17,148.648
0.72,252.947,69.3796,29.3109,118.729,190.578,-4834.8,147.3
0.74,250.925,70.7108,31.7311,121.013,114.208,-3818.5,146
0.76,248.926,72.0902,34.1603,121.46,22.3177,-4594.53,144.869
0.78,247.031,73.4467,36.491,116.534,-246.305,-13431.1,144.043
0.8,245.274,74.7334,38.6683,108.866,-383.403,-6854.89,143.61
0.82,243.621,75.9571,40.7254,102.855,-300.512,4144.56,143.434
0.84,242.053,77.1212,42.678,97.6285,-261.34,1958.58,143.446
0.86,240.564,78.2223,44.5296,92.5818,-252.335,450.274,143.636
0.88,239.149,79.2584,46.2832,87.6816,-245.009,366.285,143.992
0.9,237.805,80.2275,47.9408,82.8761,-240.279,236.507,144.508
0.92,236.527,81.1276,49.5037,78.1464,-236.483,189.783,145.185
0.94,235.323,81.9526,50.9633,72.9792,-258.36,-1093.82,146.028
0.96,234.171,82.7154,52.3448,69.0776,-195.08,3163.99,146.966
0.98,233.061,83.4247,53.6625,65.8818,-159.79,1764.47,147.93
1,231.971,84.0958,54.9424,63.9991,-94.1356,3282.74,148.805
1.02,230.887,84.7407,56.2032,63.0353,-48.1878,2297.39,149.533
1.04,229.811,85.3658,57.4482,62.2539,-39.074,455.693,150.088
1.06,228.735,85.9793,58.6864,61.9077,-17.3065,1088.37,150.425
1.08,227.677,86.5764,59.9014,60.7518,-57.797,-2024.52,150.631
1.1,226.637,87.16,61.0935,59.6029,-57.4465,17.5216,150.704
1.12,225.633,87.7234,62.2451,57.5792,-101.185,-2186.92,150.693
1.14,224.67,88.2649,63.3504,55.2665,-115.634,-722.462,150.634
1.16,223.751,88.7821,64.4041,52.6875,-128.948,-665.718,150.549
1.18,222.882,89.2744,65.4038,49.9813,-135.309,-318.006,150.455
1.2,222.061,89.7408,66.3479,47.2089,-138.623,-165.705,150.361
1.22,221.291,90.1796,67.2341,44.3073,-145.08,-322.874,150.272
1.24,220.582,90.5851,68.0507,40.8299,-173.867,-1439.32,150.193
1.26,219.925,90.9616,68.8078,37.8548,-148.757,1255.5,150.123
1.28,219.312,91.314,69.5146,35.3389,-125.798,1147.95,150.063
1.3,218.754,91.6358,70.1589,32.2155,-156.166,-1518.43,150.015
1.32,218.262,91.9201,70.7274,28.4287,-189.34,-1658.72,149.98
1.34,217.793,92.191,71.2689,27.0711,-67.8789,6073.08,149.948
1.36,217.421,92.4062,71.6985,21.4798,-279.568,-10584.4,149.93
1.38,217.063,92.6143,72.1131,20.7297,-37.5049,12103.1,149.913
1.4,216.795,92.7686,72.4217,15.4342,-264.773,-11363.4,149.902
1.42,216.649,92.855,72.5919,8.50896,-346.263,-4074.5,149.899
1.44,216.501,92.9404,72.7625,8.52694,0.89908,17358.1,149.896
1.46,216.353,93.0257,72.933,8.52694,-1.10335e-07,-44.954,149.893
1.48,216.206,93.1112,73.1038,8.53916,0.610865,30.5432,149.889
1.5,216.058,93.1966,73.2743,8.52694,-0.610865,-61.0865,149.886
