"time","x","y","position","velocity","acceleration","jerk","heading"
0,279.232,56.4181,0,0,0,0,153.435
0.02,279.112,56.4781,0.134164,6.7082,335.41,16770.5,153.435
0.04,278.992,56.5382,0.26859,6.72129,0.654498,-16737.8,153.434
0.06,278.872,56.5982,0.402754,6.7082,-0.654498,-65.4498,153.434
0.08,278.752,56.6582,0.536918,6.7082,-8.88178e-14,32.7249,153.434
0.1,278.632,56.7182,0.671082,6.7082,0,4.44089e-12,153.434
0.12,278.511,56.7783,0.805508,6.72129,0.654498,32.7249,153.433
0.14,278.391,56.8383,0.939672,6.7082,-0.654498,-65.4498,153.433
0.16,278.178,56.9447,1.17799,11.9157,260.374,13051.4,153.432
0.18,277.888,57.0898,1.50243,16.2223,215.333,-2252.04,153.431
0.2,277.598,57.2349,1.82625,16.1907,-1.58111,-10845.7,153.429
0.22,277.267,57.4001,2.19662,18.5185,116.388,5898.43,153.427
0.24,276.889,57.5894,2.61908,21.1232,130.234,692.341,153.424
0.26,276.504,57.7818,3.04945,21.5186,19.7725,-5523.09,153.42
0.28,276.055,58.0064,3.55164,25.1094,179.54,7988.37,153.415
0.3,275.601,58.234,4.05964,25.4001,14.5349,-8250.25,153.41
0.32,275.091,58.4894,4.62988,28.5117,155.581,7052.31,153.402
0.34,274.563,58.7539,5.22054,29.5333,51.078,-5225.16,153.393
0.36,273.998,59.0368,5.85203,31.5742,102.044,2548.3,153.382
0.38,273.396,59.3383,6.52536,33.6665,104.615,128.557,153.369
0.4,272.769,59.6529,7.22729,35.0969,71.5221,-1654.65,153.354
0.42,272.109,59.9845,7.96611,36.9407,92.191,1033.45,153.336
0.44,271.408,60.3364,8.74971,39.18,111.963,988.592,153.314
0.46,270.679,60.7035,9.5667,40.8494,83.47,-1424.64,153.289
0.48,269.917,61.0869,10.4195,42.6414,89.6025,306.624,153.26
0.5,269.123,61.4872,11.3085,44.447,90.2776,33.7568,153.227
0.52,268.295,61.9049,12.2357,46.3639,95.8475,278.495,153.189
0.54,267.435,62.3404,13.2002,48.2223,92.9196,-146.393,153.144
0.56,266.54,62.7941,14.2037,50.1768,97.7217,240.103,153.092
0.58,265.611,63.266,15.2455,52.0889,95.6064,-105.763,153.033
0.6,264.648,63.7565,16.3263,54.0403,97.5725,98.3009,152.964
0.62,263.652,64.2657,17.4449,55.928,94.3806,-159.594,152.887
0.64,262.622,64.7941,18.6025,57.8811,97.6593,163.934,152.797
0.66,261.558,65.3419,19.799,59.8259,97.2393,-20.9992,152.695
0.68,260.461,65.9098,21.0345,61.7726,97.3331,4.68858,152.578
0.7,259.329,66.4985,22.3103,63.7908,100.909,178.814,152.445
0.72,258.16,67.1104,23.63,65.9857,109.748,441.92,152.293
0.74,256.958,67.7439,24.9884,67.918,96.6114,-656.819,152.122
0.76,255.724,68.3995,26.3858,69.8732,97.7629,57.5767,151.931
0.78,254.45,69.0818,27.8313,72.2749,120.083,1116.01,151.713
0.8,253.146,69.787,29.3139,74.1279,92.6507,-1371.62,151.478
0.82,251.807,70.5184,30.8396,76.2877,107.991,767.032,151.221
0.84,250.435,71.2756,32.4061,78.322,101.711,-313.995,150.945
0.86,249.034,72.0589,34.0112,80.2575,96.7759,-246.779,150.656
0.88,247.604,72.8679,35.6548,82.178,96.0266,-37.4624,150.359
0.9,246.151,73.6996,37.3283,83.6774,74.9685,-1052.91,150.063
0.92,244.717,74.5304,38.9857,82.8698,-40.3793,-5767.39,149.78
0.94,243.328,75.3437,40.5957,80.4994,-118.517,-3906.89,149.53
0.96,241.977,76.1422,42.1651,78.4699,-101.478,851.952,149.308
0.98,240.668,76.922,43.6882,76.157,-115.643,-708.23,149.115
1,239.396,77.6855,45.172,74.1878,-98.4635,858.955,148.949
1.02,238.168,78.427,46.6063,71.717,-123.54,-1253.82,148.816
1.04,236.975,79.1511,48.0022,69.7913,-96.2811,1362.94,148.703
1.06,235.818,79.8556,49.3569,67.7346,-102.835,-327.682,148.613
1.08,234.7,80.5389,50.6669,65.4998,-111.743,-445.437,148.543
1.1,233.615,81.2034,51.9394,63.6282,-93.5802,908.163,148.488
1.12,232.563,81.849,53.1734,61.6976,-96.5309,-147.532,148.445
1.14,231.545,82.4747,54.3684,59.7513,-97.3127,-39.0901,148.413
1.16,230.561,83.0796,55.5235,57.7572,-99.704,-119.568,148.39
1.18,229.61,83.6654,56.6403,55.8391,-95.9061,189.896,148.373
1.2,228.69,84.232,57.7212,54.0435,-89.7811,306.25,148.362
1.22,227.802,84.7795,58.7642,52.1515,-94.5966,-240.772,148.354
1.24,226.945,85.3078,59.7709,50.3317,-90.9943,180.111,148.35
1.26,226.119,85.8168,60.7415,48.5327,-89.9475,52.3401,148.348
1.28,225.324,86.3068,61.6752,46.6834,-92.4681,-126.027,148.349
1.3,224.559,86.7781,62.5735,44.9158,-88.3763,204.59,148.35
1.32,223.825,87.2305,63.436,43.1274,-89.4229,-52.3325,148.353
1.34,223.121,87.6641,64.2623,41.312,-90.7668,-67.1967,148.356
1.36,222.453,88.0757,65.0472,39.2451,-103.346,-628.958,148.359
1.38,221.815,88.4702,65.7974,37.5091,-86.7993,827.333,148.363
1.4,221.202,88.8468,66.5171,35.9859,-76.1614,531.897,148.366
1.42,220.621,89.2052,67.1999,34.1385,-92.3715,-810.505,148.37
1.44,220.077,89.5398,67.8379,31.9045,-111.7,-966.413,148.373
1.46,219.554,89.8614,68.4522,30.7122,-59.6158,2604.2,148.376
1.48,219.072,90.159,69.0189,28.3373,-118.74,-2956.22,148.379
1.5,218.614,90.4406,69.556,26.8535,-74.1934,2227.34,148.382
1.52,218.189,90.7023,70.0556,24.9798,-93.683,-974.479,148.384
1.54,217.794,90.946,70.5194,23.1881,-89.5863,204.838,148.386
1.56,217.434,91.1669,70.9415,21.108,-104.002,-720.798,148.387
1.58,217.084,91.3826,71.3531,20.5807,-26.3687,3881.68,148.389
1.6,216.808,91.5526,71.6773,16.2077,-218.648,-9613.97,148.389
1.62,216.532,91.7225,72.0012,16.1946,-0.654498,10899.7,148.39
1.64,216.258,91.8903,72.3223,16.0571,-6.87778,-311.164,148.391
1.66,216.144,91.9613,72.4566,6.71509,-467.099,-23011,148.391
1.68,216.03,92.0313,72.5904,6.6888,-1.31492,23289.2,148.391
1.7,215.916,92.1012,72.7239,6.67571,-0.654498,33.0209,148.392
1.72,215.801,92.1722,72.8591,6.75759,4.09408,237.429,148.392
1.74,215.687,92.2422,72.9928,6.6888,-3.43959,-376.684,148.392
1.76,215.573,92.3122,73.1266,6.6888,1.86073e-11,171.979,148.392
1.78,215.458,92.3832,73.2618,6.75759,3.43959,171.979,148.392
