"time","x","y","position","velocity","acceleration","jerk","heading"
0,16.1052,42.4148,0,0,90,0,0
0.02,16.2393,42.4148,0.134164,1.8,90,0,-0.000749579
0.04,16.3735,42.4148,0.268328,3.6,90,0,-0.00149916
0.06,16.5077,42.4148,0.402492,5.4,90,0,-0.00224874
0.08,16.6418,42.4148,0.536656,7.2,90,0,-0.00299832
0.1,16.776,42.4148,0.67082,9,90,0,-0.0037479
0.12,16.9101,42.4148,0.804984,10.8,90,0,-0.00449748
0.14,17.0443,42.4148,0.939149,12.6,90,0,-0.00524705
0.16,17.2822,42.4148,1.17699,14.4,90,0,-0.00822117
0.18,17.6061,42.4147,1.50089,16.2,90,0,-0.0130417
0.2,17.93,42.4146,1.82479,18,90,0,-0.0178623
0.22,18.2989,42.4145,2.19378,19.8,90,0,-0.0251075
0.24,18.7211,42.4143,2.6159,21.6,90,0,-0.0352098
0.26,19.1503,42.414,3.04509,23.4,90,0,-0.04588
0.28,19.651,42.4136,3.5458,25.2,90,0,-0.0622875
0.3,20.1579,42.413,4.05279,27,90,0,-0.0793576
0.32,20.7263,42.4121,4.62111,28.8,90,0,-0.102898
0.34,21.3147,42.4109,5.20954,30.6,90,0,-0.129051
0.36,21.9433,42.4093,5.83818,32.4,90,0,-0.16043
0.38,22.6128,42.4073,6.50763,34.2,90,0,-0.19809
0.4,23.3106,42.4046,7.20545,36,90,0,-0.240456
0.42,24.045,42.4012,7.93989,37.8,90,0,-0.289331
0.44,24.8231,42.3969,8.71796,39.6,90,0,-0.34783
0.46,25.6337,42.3916,9.52856,41.4,90,0,-0.413599
0.48,26.4787,42.385,10.3736,43.2,90,0,-0.487495
0.5,27.3592,42.3769,11.2541,45,90,0,-0.570429
0.52,28.2758,42.367,12.1708,46.8,90,0,-0.663295
0.54,29.2289,42.3552,13.124,48.6,90,0,-0.766971
0.56,30.2186,42.341,14.1137,50.4,90,0,-0.88232
0.58,31.2446,42.3241,15.1399,52.2,90,0,-1.0102
0.6,32.3069,42.3041,16.2024,54,90,0,-1.15146
0.62,33.4052,42.2805,17.301,55.8,90,0,-1.30697
0.64,34.5392,42.253,18.4353,57.6,90,0,-1.47788
0.66,35.7085,42.221,19.6051,59.4,90,0,-1.66511
0.68,36.9128,42.1839,20.8099,61.2,90,0,-1.86901
0.7,38.1527,42.1411,22.0505,63,90,0,-2.09097
0.72,39.4316,42.0917,23.3304,64.8,90,0,-2.33396
0.74,40.7443,42.0353,24.6443,66.6,90,0,-2.5964
0.76,42.0905,41.9709,25.9921,68.4,90,0,-2.87901
0.78,43.4766,41.8976,27.3801,70.2,90,0,-3.18705
0.8,44.8955,41.8145,28.8014,72,90,0,-3.51703
0.82,46.3506,41.7207,30.2596,73.8,90,0,-3.8729
0.84,47.8408,41.6149,31.7535,75.6,90,0,-4.25504
0.86,49.3662,41.4961,33.2835,77.4,90,0,-4.66226
0.88,50.9259,41.3631,34.8489,79.2,90,0,-5.09595
0.9,52.5218,41.2144,36.4517,81,90,0,-5.5571
0.92,54.1502,41.0491,38.0885,82.8,90,0,-6.04302
0.94,55.8148,40.8654,39.7631,84.6,90,0,-6.55643
0.96,57.513,40.6622,41.4735,86.4,90,0,-7.09426
0.98,59.244,40.4382,43.219,88.2,90,0,-7.65255
1,61.008,40.1922,45,90,3.24279e-06,0,-8.22823
1.02,62.7881,39.9255,46.8,90,0,0,-8.81145
1.04,64.5654,39.6408,48.6,90,0,0,-9.38961
1.06,66.3398,39.3383,50.4,90,0,0,-9.95549
1.08,68.1112,39.0185,52.2,90,0,0,-10.5037
1.1,69.8795,38.6821,54,90,0,0,-11.028
1.12,71.6447,38.3302,55.8,90,0,0,-11.5112
1.14,73.407,37.9639,57.6,90,0,0,-11.9547
1.16,75.1666,37.5846,59.4,90,0,0,-12.3518
1.18,76.9238,37.1941,61.2,90,0,0,-12.6907
1.2,78.6787,36.794,63,90,0,0,-12.9688
1.22,80.432,36.3864,64.8,90,0,0,-13.1822
1.24,82.1839,35.9734,66.6,90,0,0,-13.3285
1.26,83.9351,35.5569,68.4,90,0,0,-13.402
1.28,85.6859,35.1391,70.2,90,0,0,-13.4114
1.3,87.437,34.7222,72,90,0,0,-13.3583
1.32,89.1887,34.308,73.8,90,0,0,-13.23
1.34,90.9415,33.8985,75.6,90,0,0,-13.0476
1.36,92.6958,33.4954,77.4,90,0,0,-12.8147
1.38,94.4519,33.1003,79.2,90,0,0,-12.5307
1.4,96.21,32.7145,81,90,0,0,-12.2048
1.42,97.9705,32.3393,82.8,90,0,0,-11.8425
1.44,99.7334,31.9758,84.6,90,0,0,-11.4513
1.46,101.499,31.6247,86.4,90,0,0,-11.0353
1.48,103.267,31.2868,88.2,90,0,0,-10.6005
1.5,105.037,30.9625,90,90,0,0,-10.1517
1.52,106.81,30.6523,91.8,90,0,0,-9.69314
1.54,108.586,30.3564,93.6,90,0,0,-9.22919
1.56,110.364,30.0749,95.4,90,0,0,-8.76293
1.58,112.144,29.8079,97.2,90,0,0,-8.29714
1.6,113.926,29.5554,99,90,0,0,-7.83428
1.62,115.71,29.3172,100.8,90,0,0,-7.3771
1.64,117.496,29.0931,102.6,90,0,0,-6.92694
1.66,119.284,28.8829,104.4,90,0,0,-6.48512
1.68,121.073,28.6864,106.2,90,0,0,-6.05266
1.7,122.864,28.5033,108,90,0,0,-5.63038
1.72,124.656,28.3332,109.8,90,0,0,-5.21957
1.74,126.449,28.1757,111.6,90,0,0,-4.82002
1.76,128.243,28.0306,113.4,90,0,0,-4.43199
1.78,130.038,27.8975,115.2,90,0,0,-4.05566
1.8,131.834,27.7759,117,90,0,0,-3.6916
1.82,133.631,27.6655,118.8,90,0,0,-3.34063
1.84,135.428,27.566,120.6,90,0,0,-3.00156
1.86,137.226,27.477,122.4,90,0,0,-2.67996
1.88,139.024,27.3968,124.2,90,0,0,-2.45806
1.9,140.822,27.3223,126,90,0,0,-2.29493
1.92,142.621,27.2525,127.8,90,0,0,-2.16043
1.94,144.42,27.1865,129.6,90,0,0,-2.04858
1.96,146.219,27.1237,131.4,90,0,0,-1.95998
1.98,148.018,27.0633,133.2,90,0,0,-1.88912
2,149.817,27.0049,135,90,0,0,-1.83791
2.02,151.616,26.9478,136.8,90,0,0,-1.80213
2.04,153.415,26.8916,138.6,90,0,0,-1.78119
2.06,155.214,26.8358,140.4,90,0,0,-1.77264
2.08,157.013,26.7801,142.2,90,0,0,-1.77556
2.1,158.812,26.7242,144,90,0,0,-1.78852
2.12,160.611,26.6677,145.8,90,0,0,-1.81014
2.14,162.41,26.6104,147.6,90,0,0,-1.8392
2.16,164.209,26.5522,149.4,90,0,0,-1.8737
2.18,166.009,26.4927,151.2,90,0,0,-1.91277
2.2,167.807,26.432,153,90,0,0,-1.95459
2.22,169.606,26.3699,154.8,90,0,0,-1.99796
2.24,171.405,26.3065,156.6,90,0,0,-2.04101
2.26,173.204,26.2417,158.4,90,0,0,-2.0821
2.28,175.003,26.1757,160.2,90,0,0,-2.11944
2.3,176.802,26.1086,162,90,0,0,-2.15152
2.32,178.6,26.0406,163.8,90,0,0,-2.17483
2.34,180.399,25.972,165.6,90,0,0,-2.18897
2.36,182.198,25.9032,167.4,90,0,0,-2.18988
2.38,183.996,25.8346,169.2,90,0,0,-2.17617
2.4,185.795,25.7666,171,90,0,0,-2.14606
2.42,187.594,25.7,172.8,90,0,0,-2.09199
2.44,189.393,25.6353,174.6,90,0,0,-2.01481
2.46,191.192,25.5735,176.4,90,0,0,-1.91145
2.48,192.991,25.5155,178.2,90,0,0,-1.77588
2.5,194.79,25.4622,180,90,0,0,-1.6055
2.52,196.589,25.4149,181.8,90,0,0,-1.39508
2.54,198.389,25.3748,183.6,90,0,0,-1.14273
2.56,200.189,25.3434,185.4,90,0,0,-0.843376
2.58,201.989,25.3222,187.2,90,0,0,-0.49145
2.6,203.788,25.3129,189,90,0,0,-0.0855348
2.62,205.588,25.3173,190.8,90,0,0,0.381915
2.64,207.388,25.3373,192.6,90,0,0,0.910787
2.66,209.188,25.3749,194.4,90,0,0,1.50378
2.68,210.987,25.4322,196.2,90,0,0,2.16289
2.7,212.785,25.5112,198,90,0,0,2.88922
2.72,214.582,25.6142,199.8,90,0,0,3.68694
2.74,216.378,25.7432,201.6,90,0,0,4.55038
2.76,218.171,25.9003,203.4,90,0,0,5.47675
2.78,219.961,26.0872,205.2,90,0,0,6.46189
2.8,221.748,26.3058,207,90,0,0,7.50098
2.82,223.53,26.5576,208.8,90,0,0,8.58895
2.84,225.307,26.8436,210.6,90,0,0,9.7134
2.86,227.078,27.165,212.4,90,0,0,10.8642
2.88,228.842,27.5223,214.2,90,0,0,12.0355
2.9,230.599,27.9157,216,90,0,0,13.2159
2.92,232.347,28.3452,217.8,90,0,0,14.3952
2.94,234.085,28.8105,219.6,90,0,0,15.5638
2.96,235.814,29.3109,221.4,90,0,0,16.7131
2.98,237.533,29.8455,223.2,90,0,0,17.8356
3,239.241,30.4132,225,90,0,0,18.9251
3.02,240.939,31.0127,226.8,90,0,0,19.974
3.04,242.625,31.6427,228.6,90,0,0,20.9806
3.06,244.3,32.3014,230.4,90,0,0,21.9423
3.08,245.964,32.9876,232.2,90,-18,0,22.8576
3.1,247.612,33.6972,233.994,89,-90,0,23.7223
3.12,249.219,34.417,235.755,87.2,-90,0,24.5184
3.14,250.784,35.1433,237.481,85.4,-90,0,25.255
3.16,252.309,35.8739,239.172,83.6,-90,0,25.9365
3.18,253.792,36.6056,240.825,81.8,-90,0,26.5627
3.2,255.235,37.3361,242.443,80,-90,0,27.1347
3.22,256.641,38.065,244.026,78.2,-90,0,27.6635
3.24,258.006,38.7878,245.571,76.4,-90,0,28.1465
3.26,259.335,39.506,247.082,74.6,-90,0,28.5896
3.28,260.626,40.2153,248.554,72.8,-90,0,28.993
3.3,261.883,40.9175,249.994,71,-90,0,29.3669
3.32,263.101,41.6076,251.394,69.2,-90,0,29.7037
3.34,264.286,42.288,252.761,67.4,-90,0,30.0128
3.36,265.437,42.9567,254.092,65.6,-90,0,30.297
3.38,266.551,43.6111,255.384,63.8,-90,0,30.5536
3.4,267.633,44.2529,256.642,62,-90,0,30.7873
3.42,268.682,44.8811,257.865,60.2,-90,0,31.0023
3.44,269.699,45.4941,259.052,58.4,-90,0,31.197
3.46,270.68,46.0905,260.2,56.6,-90,0,31.3711
3.48,271.629,46.6713,261.313,54.8,-90,0,31.5305
3.5,272.547,47.2359,262.391,53,-90,0,31.6749
3.52,273.433,47.7839,263.432,51.2,-90,0,31.804
3.54,274.287,48.3148,264.438,49.4,-90,0,31.9207
3.56,275.11,48.8284,265.408,47.6,-90,0,32.0264
3.58,275.901,49.3243,266.342,45.8,-90,0,32.1205
3.6,276.662,49.8027,267.24,44,-90,0,32.2037
3.62,277.392,50.2636,268.104,42.2,-90,0,32.2789
3.64,278.091,50.7055,268.931,40.4,-90,0,32.3463
3.66,278.754,51.1263,269.716,38.6,-90,0,32.4031
3.68,279.389,51.5294,270.468,36.8,-90,0,32.4534
3.7,279.997,51.9162,271.189,35,-90,0,32.4986
3.72,280.573,52.2837,271.872,33.2,-90,0,32.5384
3.74,281.112,52.6276,272.511,31.4,-90,0,32.5712
3.76,281.63,52.9589,273.126,29.6,-90,0,32.6007
3.78,282.109,53.2652,273.695,27.8,-90,0,32.6242
3.8,282.561,53.5549,274.232,26,-90,0,32.6449
3.82,282.982,53.8251,274.732,24.2,-90,0,32.6625
3.84,283.373,54.0756,275.196,22.4,-90,0,32.6774
3.86,283.728,54.3036,275.619,20.6,-90,0,32.6892
3.88,284.076,54.5265,276.031,18.8,-90,0,32.7004
3.9,284.348,54.7015,276.355,17,-90,0,32.7062
3.92,284.621,54.8765,276.679,15.2,-90,0,32.712
3.94,284.892,55.0506,277.001,13.4,-90,0,32.7178
3.96,285.005,55.1232,277.135,11.6,-90,0,32.7194
3.98,285.118,55.1957,277.27,9.8,-90,0,32.721
4,285.23,55.2682,277.404,8,-90,0,32.7226
4.02,285.343,55.3407,277.538,6.2,-90,0,32.7242
4.04,285.456,55.4133,277.672,4.4,-90,0,32.7257
4.06,285.569,55.4858,277.806,2.6,-90,0,32.7273
4.08,285.682,55.5584,277.94,0.8,-90,0,32.7289
