"time","x","y","position","velocity","acceleration","jerk","heading"
0,0,0,0,0,120,0,0
0.02,0.154919,0,0.154919,2.4,120,0,0
0.04,0.309839,0,0.309839,4.8,120,0,0
0.06,0.464758,0,0.464758,7.2,120,0,0
0.08,0.619677,0,0.619677,9.6,120,0,0
0.1,0.774597,0,0.774597,12,120,0,0
0.12,0.929516,0,0.929516,14.4,120,0,0
0.14,1.20384,0,1.20384,16.8,120,0,0
0.16,1.57785,0,1.57785,19.2,120,0,0
0.18,1.95186,0,1.95186,21.6,120,0,0
0.2,2.42468,0,2.42468,24,120,0,0
0.22,2.9121,0,2.9121,26.4,120,0,0
0.24,3.4739,0,3.4739,28.8,120,0,0
0.26,4.0591,0,4.0591,31.2,120,0,0
0.28,4.71535,0,4.71535,33.6,120,0,0
0.3,5.41103,0,5.41103,36,120,0,0
0.32,6.14888,0,6.14888,38.4,120,0,0
0.34,6.93823,0,6.93823,40.8,120,0,0
0.36,7.78169,0,7.78169,43.2,120,0,0
0.38,8.6705,0,8.6705,45.6,120,0,0
0.4,9.60629,0,9.60629,48,120,0,0
0.42,10.5898,0,10.5898,50.4,120,0,0
0.44,11.6211,0,11.6211,52.8,120,0,0
0.46,12.7002,0,12.7002,55.2,120,0,0
0.48,13.8267,0,13.8267,57.6,120,0,0
0.5,15,0,15,60,120,0,0
0.52,16.2267,0,16.2267,62.4,120,0,0
0.54,17.4996,0,17.4996,64.8,120,0,0
0.56,18.818,0,18.818,67.2,120,0,0
0.58,20.1858,0,20.1858,69.6,120,0,0
0.6,21.6028,0,21.6028,72,120,0,0
0.62,23.0646,0,23.0646,74.4,120,0,0
0.64,24.5785,0,24.5785,76.8,120,0,0
0.66,26.1371,0,26.1371,79.2,120,0,0
0.68,27.7457,0,27.7457,81.6,120,0,0
0.7,29.402,0,29.402,84,120,0,0
0.72,31.1047,0,31.1047,86.4,120,0,0
0.74,32.8569,0,32.8569,88.8,120,0,0
0.76,34.6576,0,34.6576,91.2,120,0,0
0.78,36.5057,0,36.5057,93.6,120,0,0
0.8,38.4016,0,38.4016,96,120,0,0
0.82,40.3454,0,40.3454,98.4,120,0,0
0.84,42.3373,0,42.3373,100.8,120,0,0
0.86,44.3773,0,44.3773,103.2,120,0,0
0.88,46.4653,0,46.4653,105.6,120,0,0
0.9,48.6012,0,48.6012,108,120,0,0
0.92,50.777,0,50.777,108.689,-120,0,0
0.94,52.9273,0,52.9273,106.289,-120,0,0
0.96,55.0293,0,55.0293,103.889,-120,0,0
0.98,57.0828,0,57.0828,101.489,-120,0,0
1,59.0885,0,59.0885,99.089,-120,0,0
1.02,61.0465,0,61.0465,96.689,-120,0,0
1.04,62.9563,0,62.9563,94.289,-120,0,0
1.06,64.8173,0,64.8173,91.889,-120,0,0
1.08,66.6304,0,66.6304,89.489,-120,0,0
1.1,68.396,0,68.396,87.089,-120,0,0
1.12,70.1148,0,70.1148,84.689,-120,0,0
1.14,71.784,0,71.784,82.289,-120,0,0
1.16,73.405,0,73.405,79.889,-120,0,0
1.18,74.9809,0,74.9809,77.489,-120,0,0
1.2,76.5042,0,76.5042,75.089,-120,0,0
1.22,77.9844,0,77.9844,72.689,-120,0,0
1.24,79.4114,0,79.4114,70.289,-120,0,0
1.26,80.7941,0,80.7941,67.889,-120,0,0
1.28,82.1284,0,82.1284,65.489,-120,0,0
1.3,83.4121,0,83.4121,63.089,-120,0,0
1.32,84.6498,0,84.6498,60.689,-120,0,0
1.34,85.841,0,85.841,58.289,-120,0,0
1.36,86.9848,0,86.9848,55.889,-120,0,0
1.38,88.0773,0,88.0773,53.489,-120,0,0
1.4,89.1221,0,89.1221,51.089,-120,0,0
1.42,90.1196,0,90.1196,48.689,-120,0,0
1.44,91.0703,0,91.0703,46.289,-120,0,0
1.46,91.9732,0,91.9732,43.889,-120,0,0
1.48,92.8229,0,92.8229,41.489,-120,0,0
1.5,93.6245,0,93.6245,39.089,-120,0,0
1.52,94.3806,0,94.3806,36.689,-120,0,0
1.54,95.0962,0,95.0962,34.289,-120,0,0
1.56,95.7525,0,95.7525,31.889,-120,0,0
1.58,96.3601,0,96.3601,29.489,-120,0,0
1.6,96.9383,0,96.9383,27.089,-120,0,0
1.62,97.4354,0,97.4354,24.689,-120,0,0
1.64,97.9228,0,97.9228,22.289,-120,0,0
1.66,98.3148,0,98.3148,19.889,-120,0,0
1.68,98.6888,0,98.6888,17.489,-120,0,0
1.7,99.026,0,99.026,15.089,-120,0,0
1.72,99.1809,0,99.1809,12.689,-120,0,0
1.74,99.3358,0,99.3358,10.289,-120,0,0
1.76,99.4908,0,99.4908,7.88902,-120,0,0
1.78,99.6457,0,99.6457,5.48902,-120,0,0
1.8,99.8006,0,99.8006,3.08902,-120,0,0
1.82,99.9555,0,99.9555,0.689023,-120,0,0
