"time","x","y","position","velocity","acceleration","jerk","heading"
0,293.104,68.5873,0,0,0,0,145
0.02,292.993,68.6649,0.135319,6.76597,338.298,16914.9,145.004
0.04,292.882,68.7424,0.270581,6.7631,-0.143304,-16922.1,145.008
0.06,292.771,68.82,0.405901,6.76597,0.143304,14.3304,145.012
0.08,292.66,68.8975,0.541163,6.7631,-0.143303,-14.3304,145.016
0.1,292.549,68.975,0.676425,6.7631,8.53063e-08,7.16517,145.02
0.12,292.439,69.0526,0.810926,6.72506,-1.90172,-95.0862,145.024
0.14,292.329,69.1301,0.946188,6.7631,1.90172,190.172,145.028
0.16,292.131,69.2685,1.18777,12.0789,265.791,13194.5,145.042
0.18,291.859,69.4577,1.5184,16.5317,222.639,-2157.62,145.066
0.2,291.59,69.6466,1.8479,16.4748,-2.84688,-11274.3,145.089
0.22,291.279,69.863,2.22634,18.9225,122.385,6261.59,145.124
0.24,290.923,70.1115,2.66074,21.7199,139.872,874.338,145.172
0.26,290.559,70.364,3.10358,22.1419,21.0996,-5938.6,145.222
0.28,290.131,70.6609,3.62411,26.0266,194.237,8656.89,145.299
0.3,289.697,70.9612,4.15207,26.3979,18.5644,-8783.66,145.379
0.32,289.205,71.3002,4.74949,29.8709,173.647,7754.15,145.49
0.34,288.693,71.6515,5.37021,31.0361,58.2596,-5769.39,145.614
0.36,288.141,72.0286,6.03898,33.4388,120.137,3093.86,145.768
0.38,287.547,72.4316,6.75685,35.8933,122.727,129.516,145.953
0.4,286.923,72.8516,7.50903,37.6089,85.7804,-1847.34,146.16
0.42,286.26,73.2942,8.30619,39.858,112.452,1333.57,146.399
0.44,285.549,73.7641,9.15831,42.6059,137.394,1247.13,146.682
0.46,284.801,74.2534,10.0523,44.6973,104.572,-1641.1,147.002
0.48,284.011,74.7629,10.9928,47.0285,116.561,599.441,147.364
0.5,283.176,75.2931,11.9811,49.4161,119.378,140.829,147.776
0.52,282.295,75.844,13.0205,51.968,127.597,410.98,148.246
0.54,281.363,76.4148,14.1132,54.6339,133.292,284.765,148.778
0.56,280.38,77.004,15.2595,57.3171,134.162,43.4826,149.376
0.58,279.343,77.6103,16.4611,60.0809,138.188,201.275,150.046
0.6,278.248,78.2318,17.7196,62.9229,142.103,195.756,150.794
0.62,277.095,78.866,19.0354,65.7907,143.39,64.3501,151.626
0.64,275.881,79.51,20.4104,68.7499,147.957,228.367,152.546
0.66,274.602,80.1604,21.8452,71.7396,149.488,76.5395,153.557
0.68,273.257,80.8132,23.3398,74.7299,149.516,1.38477,154.663
0.7,271.847,81.4637,24.893,77.6585,146.427,-154.45,155.859
0.72,270.367,82.1075,26.507,80.7029,152.219,289.629,157.134
0.74,268.825,82.7367,28.1718,83.2373,126.721,-1274.89,158.476
0.76,267.226,83.3451,29.883,85.5595,116.112,-530.49,159.863
0.78,265.572,83.9286,31.637,87.7012,107.084,-451.358,161.261
0.8,263.88,84.4795,33.4159,88.9474,62.3084,-2238.8,162.629
0.82,262.156,84.9964,35.2159,90.0004,52.6518,-482.829,163.934
0.84,260.422,85.4756,37.0149,89.9463,-2.70247,-2767.72,165.099
0.86,258.689,85.9193,38.8038,89.4477,-24.9303,-1111.39,166.097
0.88,256.995,86.3249,40.5461,87.112,-116.786,-4592.8,166.888
0.9,255.397,86.6879,42.1842,81.9072,-260.243,-7172.84,167.399
0.92,253.887,87.02,43.731,77.3386,-228.427,1590.82,167.699
0.94,252.459,87.3287,45.1918,73.0433,-214.768,682.958,167.808
0.96,251.114,87.6193,46.5679,68.805,-211.914,142.671,167.734
0.98,249.831,87.8994,47.8811,65.6579,-157.355,2727.94,167.546
1,248.617,88.1703,49.1251,62.198,-172.993,-781.907,167.249
1.02,247.453,88.437,50.3189,59.6915,-125.324,2383.47,166.891
1.04,246.336,88.7008,51.4662,57.3656,-116.298,451.32,166.485
1.06,245.265,88.9625,52.5688,55.1313,-111.714,229.213,166.049
1.08,244.236,89.2223,53.6304,53.0781,-102.661,452.648,165.601
1.1,243.243,89.4814,54.6564,51.3005,-88.8799,689.033,165.154
1.12,242.284,89.7396,55.6503,49.6955,-80.2466,431.663,164.718
1.14,241.357,89.9966,56.6123,48.1006,-79.7479,24.9388,164.298
1.16,240.461,90.2518,57.5433,46.5476,-77.65,104.894,163.898
1.18,239.596,90.5047,58.445,45.0852,-73.1203,226.485,163.522
1.2,238.76,90.7548,59.3168,43.5919,-74.6633,-77.149,163.172
1.22,237.954,91.0012,60.1598,42.1472,-72.238,121.262,162.849
1.24,237.176,91.2434,60.9746,40.7429,-70.2149,101.154,162.553
1.26,236.427,91.481,61.7607,39.3062,-71.8355,-81.028,162.282
1.28,235.704,91.7137,62.52,37.9612,-67.2461,229.472,162.036
1.3,235.016,91.9385,63.2442,36.2135,-87.3883,-1007.11,161.817
1.32,234.357,92.156,63.938,34.6886,-76.2431,557.258,161.623
1.34,233.725,92.3672,64.6039,33.296,-69.632,330.557,161.448
1.36,233.117,92.5724,65.2464,32.1225,-58.6721,547.992,161.29
1.38,232.552,92.7647,65.8432,29.8417,-114.042,-2768.5,161.165
1.4,232.007,92.9511,66.419,28.7891,-52.6288,3070.67,161.051
1.42,231.493,93.128,66.9626,27.1779,-80.5621,-1396.66,160.954
1.44,231.016,93.2933,67.4676,25.2521,-96.2864,-786.211,160.874
1.46,230.56,93.4517,67.95,24.1215,-56.5319,1987.72,160.804
1.48,230.148,93.5956,68.3868,21.8404,-114.055,-2876.14,160.749
1.5,229.76,93.7311,68.7974,20.5304,-65.5008,2427.69,160.703
1.52,229.396,93.8588,69.1831,19.2822,-62.408,154.643,160.662
1.54,229.096,93.9641,69.5011,15.9009,-169.068,-5333,160.638
1.56,228.797,94.0696,69.8182,15.8554,-2.27543,8339.63,160.614
1.58,228.527,94.1646,70.1043,14.3037,-77.5805,-3765.25,160.593
1.6,228.401,94.2089,70.2378,6.67783,-381.296,-15185.8,160.589
1.62,228.276,94.2532,70.3707,6.64376,-1.70325,18979.6,160.586
1.64,228.15,94.2975,70.5043,6.67783,1.70325,170.325,160.582
1.66,228.025,94.3418,70.6371,6.64376,-1.70325,-170.325,160.579
1.68,227.899,94.3861,70.7707,6.67783,1.70325,170.325,160.575
1.7,227.774,94.4304,70.9034,6.63234,-2.27424,-198.875,160.571
1.72,227.647,94.4748,71.0372,6.69092,2.92874,260.149,160.568
