"time","x","y","position","velocity","acceleration","jerk","heading"
0,16.1052,42.4148,0,0,144,0,0
0.02,16.2749,42.4148,0.169706,2.88,144,0,-0.000948151
0.04,16.4446,42.4148,0.339411,5.76,144,0,-0.0018963
0.06,16.6143,42.4148,0.509117,8.64,144,0,-0.00284445
0.08,16.784,42.4148,0.678823,11.52,144,0,-0.0037926
0.1,16.9537,42.4148,0.848528,14.4,144,0,-0.00474076
0.12,17.1492,42.4148,1.04402,17.28,144,0,-0.00624218
0.14,17.5589,42.4147,1.45373,20.16,144,0,-0.0123397
0.16,17.9686,42.4146,1.86343,23.04,144,0,-0.0184373
0.18,18.4611,42.4144,2.35596,25.92,144,0,-0.0289888
0.2,18.9951,42.4141,2.8899,28.8,144,0,-0.0417674
0.22,19.6079,42.4136,3.50275,31.68,144,0,-0.0608768
0.24,20.2596,42.4128,4.15448,34.56,144,0,-0.0835698
0.26,20.9785,42.4116,4.87336,37.44,144,0,-0.113347
0.28,21.7602,42.4098,5.65509,40.32,144,0,-0.151291
0.3,22.5948,42.4073,6.48963,43.2,144,0,-0.197041
0.32,23.4858,42.4039,7.38067,46.08,144,0,-0.252117
0.34,24.4348,42.3992,8.32971,48.96,144,0,-0.318358
0.36,25.4422,42.3929,9.33708,51.84,144,0,-0.397529
0.38,26.5076,42.3847,10.4025,54.72,144,0,-0.490156
0.4,27.6305,42.3741,11.5254,57.6,144,0,-0.597513
0.42,28.8099,42.3606,12.705,60.48,144,0,-0.720842
0.44,30.0451,42.3436,13.9402,63.36,144,0,-0.861359
0.46,31.3428,42.3223,15.2381,66.24,144,0,-1.02311
0.48,32.6969,42.296,16.5925,69.12,144,0,-1.20581
0.5,34.104,42.264,18,72,144,0,-1.40998
0.52,35.5755,42.2248,19.472,74.88,144,0,-1.64331
0.54,37.098,42.1778,20.9953,77.76,144,0,-1.90086
0.56,38.6837,42.1212,22.5819,80.64,144,0,-2.19076
0.58,40.323,42.054,24.2226,83.52,144,0,-2.51044
0.6,42.0193,41.9745,25.9207,86.4,144,0,-2.8639
0.62,43.7748,41.8808,27.6788,89.28,144,0,-3.25506
0.64,45.586,41.7711,29.4933,92.16,144,0,-3.6839
0.66,47.4534,41.6434,31.365,95.04,144,0,-4.15459
0.68,49.377,41.4952,33.2944,97.92,144,0,-4.66522
0.7,51.3567,41.3242,35.2814,100.8,144,0,-5.21882
0.72,53.3921,41.1278,37.3263,103.68,144,0,-5.81538
0.74,55.4825,40.9032,39.4288,106.56,144,0,-6.45353
0.76,57.6273,40.6479,41.5887,109.44,144,0,-7.13069
0.78,59.8254,40.3591,43.8057,112.32,144,0,-7.84155
0.8,62.0768,40.0343,46.0804,115.2,144,0,-8.57831
0.82,64.382,39.671,48.4141,118.08,144,0,-9.33008
0.84,66.7376,39.268,50.804,120.96,144,0,-10.0807
0.86,69.1451,38.8238,53.2521,123.84,144,0,-10.8117
0.88,71.6032,38.3386,55.7576,126.72,144,0,-11.5
0.9,74.1121,37.8135,58.3209,129.6,144,0,-12.12
0.92,76.6711,37.2509,60.941,132.48,144,0,-12.6459
0.94,79.2829,36.6544,63.6201,135.36,144,0,-13.0498
0.96,81.9466,36.0296,66.3561,138.24,144,0,-13.3116
0.98,84.6639,35.383,69.1493,141.12,144,0,-13.4161
1,87.437,34.7222,72,144,1.16036e-05,0,-13.3583
1.02,90.2402,34.0616,74.88,144,0,0,-13.1293
1.04,93.0468,33.4157,77.76,144,0,0,-12.7603
1.06,95.8582,32.7909,80.64,144,0,0,-12.2719
1.08,98.6754,32.1925,83.52,144,0,0,-11.6896
1.1,101.499,31.6247,86.4,144,0,0,-11.0353
1.12,104.329,31.0905,89.28,144,0,0,-10.3325
1.14,107.165,30.592,92.16,144,0,0,-9.60067
1.16,110.008,30.1301,95.04,144,0,0,-8.85617
1.18,112.857,29.7052,97.92,144,0,0,-8.11198
1.2,115.71,29.3172,100.8,144,0,0,-7.3771
1.22,118.569,28.9654,103.68,144,0,0,-6.66073
1.24,121.431,28.6487,106.56,144,0,0,-5.96755
1.26,124.297,28.3662,109.44,144,0,0,-5.30104
1.28,127.166,28.1162,112.32,144,0,0,-4.66335
1.3,130.038,27.8975,115.2,144,0,0,-4.05566
1.32,132.912,27.7084,118.08,144,0,0,-3.47953
1.34,135.787,27.5474,120.96,144,0,0,-2.93478
1.36,138.664,27.4124,123.84,144,0,0,-2.4937
1.38,141.542,27.2939,126.72,144,0,0,-2.23805
1.4,144.42,27.1865,129.6,144,0,0,-2.04858
1.42,147.298,27.0872,132.48,144,0,0,-1.91539
1.44,150.176,26.9933,135.36,144,0,0,-1.82983
1.46,153.055,26.9027,138.24,144,0,0,-1.7844
1.48,155.934,26.8136,141.12,144,0,0,-1.77261
1.5,158.812,26.7242,144,144,0,0,-1.78852
1.52,161.691,26.6335,146.88,144,0,0,-1.82665
1.54,164.569,26.5404,149.76,144,0,0,-1.8811
1.56,167.448,26.4442,152.64,144,0,0,-1.94613
1.58,170.326,26.3447,155.52,144,0,0,-2.01528
1.6,173.204,26.2417,158.4,144,0,0,-2.0821
1.62,176.082,26.1356,161.28,144,0,0,-2.13937
1.64,178.96,26.0269,164.16,144,0,0,-2.17851
1.66,181.838,25.917,167.04,144,0,0,-2.1913
1.68,184.716,25.8073,169.92,144,0,0,-2.16633
1.7,187.594,25.7,172.8,144,0,0,-2.09199
1.72,190.472,25.5979,175.68,144,0,0,-1.95631
1.74,193.351,25.5044,178.56,144,0,0,-1.74403
1.76,196.229,25.4238,181.44,144,0,0,-1.43966
1.78,199.109,25.3611,184.32,144,0,0,-1.02929
1.8,201.989,25.3222,187.2,144,0,0,-0.49145
1.82,204.868,25.3138,190.08,144,0,0,0.187449
1.84,207.748,25.3434,192.96,144,0,0,1.02208
1.86,210.627,25.419,195.84,144,0,0,2.02521
1.88,213.504,25.5494,198.72,144,0,0,3.20164
1.9,216.378,25.7432,201.6,144,0,0,4.55038
1.92,219.245,26.0087,204.48,144,0,0,6.06154
1.94,222.097,26.3525,207.353,142.64,-144,0,7.71379
1.96,224.89,26.7733,210.177,139.76,-144,0,9.44777
1.98,227.612,27.2691,212.944,136.88,-144,0,11.2161
2,230.26,27.8368,215.652,134,-144,0,12.9874
2.02,232.834,28.4717,218.303,131.12,-144,0,14.7232
2.04,235.333,29.1677,220.897,128.24,-144,0,16.395
2.06,237.754,29.917,223.432,125.36,-144,0,17.9777
2.08,240.102,30.713,225.912,122.48,-144,0,19.4615
2.1,242.374,31.5469,228.332,119.6,-144,0,20.8334
2.12,244.573,32.412,230.695,116.72,-144,0,22.0956
2.14,246.701,33.3015,233.002,113.84,-144,0,23.2507
2.16,248.758,34.2075,235.248,110.96,-144,0,24.2936
2.18,250.746,35.1252,237.438,108.08,-144,0,25.2374
2.2,252.668,36.0492,239.571,105.2,-144,0,26.0908
2.22,254.526,36.9746,241.646,102.32,-144,0,26.8573
2.24,256.32,37.8971,243.664,99.44,-144,0,27.5444
2.26,258.052,38.8129,245.624,96.56,-144,0,28.1627
2.28,259.725,39.7189,247.526,93.68,-144,0,28.7131
2.3,261.339,40.6124,249.371,90.8,-144,0,29.207
2.32,262.896,41.491,251.159,87.92,-144,0,29.6492
2.34,264.397,42.352,252.889,85.04,-144,0,30.0412
2.36,265.84,43.1928,254.559,82.16,-144,0,30.3915
2.38,267.231,44.0139,256.174,79.28,-144,0,30.7025
2.4,268.567,44.8117,257.73,76.4,-144,0,30.979
2.42,269.851,45.5862,259.23,73.52,-144,0,31.2242
2.44,271.081,46.3355,260.67,70.64,-144,0,31.4394
2.46,272.263,47.0607,262.057,67.76,-144,0,31.6324
2.48,273.388,47.7563,263.38,64.88,-144,0,31.7977
2.5,274.466,48.4263,264.649,62,-144,0,31.9444
2.52,275.494,49.0693,265.862,59.12,-144,0,32.0738
2.54,276.473,49.6839,267.017,56.24,-144,0,32.1841
2.56,277.398,50.2673,268.111,53.36,-144,0,32.2795
2.58,278.275,50.822,269.148,50.48,-144,0,32.3625
2.6,279.103,51.3475,270.129,47.6,-144,0,32.4316
2.62,279.883,51.844,271.054,44.72,-144,0,32.4908
2.64,280.612,52.3088,271.919,41.84,-144,0,32.5411
2.66,281.288,52.7403,272.72,38.96,-144,0,32.5816
2.68,281.916,53.1421,273.466,36.08,-144,0,32.6147
2.7,282.503,53.5178,274.163,33.2,-144,0,32.6425
2.72,283.036,53.8596,274.796,30.32,-144,0,32.6647
2.74,283.513,54.1651,275.362,27.44,-144,0,32.682
2.76,283.962,54.4535,275.896,24.56,-144,0,32.6969
2.78,284.327,54.6879,276.33,21.68,-144,0,32.7058
2.8,284.672,54.9093,276.74,18.8,-144,0,32.7131
2.82,284.943,55.0834,277.062,15.92,-144,0,32.7186
2.84,285.086,55.1752,277.232,13.04,-144,0,32.7206
2.86,285.228,55.2669,277.401,10.16,-144,0,32.7226
2.88,285.371,55.3587,277.571,7.28,-144,0,32.7246
2.9,285.514,55.4504,277.741,4.4,-144,0,32.7266
2.92,285.657,55.5422,277.91,1.52,-144,0,32.7286
