"time","x","y","position","velocity","acceleration","jerk","heading"
0,281.658,43.0015,0,0,0,0,159.327
0.02,281.532,43.0488,0.134376,6.71882,335.941,16797.1,159.328
0.04,281.407,43.096,0.267782,6.67028,-2.42731,-16918.4,159.329
0.06,281.281,43.1433,0.402158,6.71882,2.42731,242.731,159.33
0.08,281.156,43.1906,0.535599,6.67205,-2.33875,-238.303,159.331
0.1,281.031,43.2377,0.669696,6.70485,1.63994,198.934,159.333
0.12,280.906,43.285,0.803137,6.67205,-1.63994,-163.994,159.334
0.14,280.78,43.3323,0.937479,6.71706,2.2508,194.537,159.335
0.16,280.559,43.4159,1.17386,11.8192,255.105,12642.7,159.339
0.18,280.258,43.5296,1.4962,16.117,214.893,-2010.56,159.345
0.2,279.956,43.6434,1.81858,16.1188,0.0882039,-10740.3,159.351
0.22,279.612,43.7727,2.18603,18.3726,112.691,5630.14,159.36
0.24,279.22,43.9204,2.60495,20.9461,128.673,799.086,159.373
0.26,278.822,44.0705,3.03033,21.2691,16.1522,-5626.02,159.386
0.28,278.358,44.245,3.52645,24.806,176.844,8034.57,159.406
0.3,277.887,44.4213,4.02865,25.1098,15.1895,-8082.71,159.427
0.32,277.362,44.6184,4.58953,28.044,146.714,6576.24,159.457
0.34,276.819,44.8219,5.16985,29.0163,48.6122,-4905.1,159.49
0.36,276.239,45.0387,5.78911,30.9626,97.313,2435.04,159.529
0.38,275.622,45.2687,6.44707,32.8984,96.7904,-26.1313,159.575
0.4,274.98,45.5075,7.13212,34.2525,67.7048,-1454.28,159.627
0.42,274.304,45.7579,7.85276,36.032,88.9795,1063.73,159.685
0.44,273.591,46.0219,8.61344,38.0337,100.083,555.165,159.753
0.46,272.848,46.2953,9.40525,39.5909,77.8591,-1111.18,159.831
0.48,272.074,46.5789,10.2298,41.2282,81.8641,200.251,159.917
0.5,271.269,46.8725,11.0867,42.8428,80.7324,-56.5872,160.013
0.52,270.431,47.1762,11.9775,44.5393,84.8246,204.611,160.12
0.54,269.562,47.4898,12.9014,46.1977,82.9219,-95.1354,160.237
0.56,268.66,47.8128,13.8598,47.9192,86.075,157.655,160.366
0.58,267.725,48.1448,14.8516,49.5889,83.4832,-129.591,160.507
0.6,266.759,48.4857,15.8767,51.2538,83.2465,-11.8317,160.66
0.62,265.76,48.8347,16.9348,52.9075,82.6835,-28.1538,160.825
0.64,264.729,49.1916,18.0259,54.5567,82.4592,-11.2108,161.002
0.66,263.665,49.5559,19.1506,56.2316,83.7475,64.4116,161.188
0.68,262.568,49.9272,20.3079,57.8656,81.7,-102.373,161.382
0.7,261.439,50.3056,21.499,59.5567,84.5509,142.545,161.583
0.72,260.271,50.6924,22.7297,61.5363,98.9826,721.582,161.784
0.74,259.067,51.0859,23.9957,63.2985,88.1078,-543.739,161.981
0.76,257.828,51.4863,25.2979,65.1072,90.4374,116.482,162.17
0.78,256.545,51.8968,26.645,67.3594,112.611,1108.67,162.337
0.8,255.224,52.3159,28.0315,69.3247,98.2627,-717.4,162.476
0.82,253.855,52.7465,29.4665,71.7483,121.182,1145.97,162.571
0.84,252.438,53.1899,30.9505,74.2003,122.598,70.8154,162.613
0.86,250.974,53.6481,32.4845,76.7003,125.001,120.148,162.596
0.88,249.464,54.1224,34.0674,79.1432,122.145,-142.815,162.501
0.9,247.948,54.6026,35.6579,79.5255,19.1116,-5151.68,162.328
0.92,246.453,55.0817,37.2279,78.5005,-51.248,-3517.98,162.104
0.94,244.985,55.5593,38.7713,77.1712,-66.4645,-760.825,161.83
0.96,243.544,56.0362,40.2892,75.8923,-63.943,126.076,161.524
0.98,242.138,56.5105,41.7738,74.2298,-83.1272,-959.209,161.201
1,240.765,56.9821,43.2254,72.5835,-82.3151,40.6059,160.868
1.02,239.427,57.4501,44.6421,70.8328,-87.5346,-260.979,160.538
1.04,238.133,57.9121,46.0169,68.7405,-104.615,-854.029,160.217
1.06,236.876,58.3678,47.3537,66.8419,-94.931,484.211,159.909
1.08,235.658,58.8166,48.6513,64.8788,-98.1541,-161.157,159.619
1.1,234.48,59.2575,49.9091,62.8913,-99.3761,-61.0977,159.348
1.12,233.344,59.6887,51.1243,60.759,-106.615,-361.927,159.098
1.14,232.249,60.1094,52.2976,58.6621,-104.845,88.4932,158.869
1.16,231.194,60.5197,53.4294,56.5906,-103.576,63.4552,158.659
1.18,230.177,60.919,54.5224,54.6505,-97.0014,328.712,158.468
1.2,229.198,61.3067,55.5747,52.6156,-101.75,-237.406,158.295
1.22,228.259,61.6825,56.5869,50.6104,-100.26,74.4976,158.137
1.24,227.356,62.046,57.5603,48.6684,-97.0989,158.036,157.996
1.26,226.49,62.3969,58.494,46.6869,-99.0736,-98.7363,157.871
1.28,225.661,62.7354,59.39,44.799,-94.3943,233.965,157.758
1.3,224.874,63.0582,60.2408,42.5383,-113.035,-932.018,157.66
1.32,224.122,63.3676,61.0538,40.6524,-94.2952,936.976,157.572
1.34,223.405,63.6644,61.8297,38.7941,-92.9168,68.9198,157.493
1.36,222.718,63.9495,62.5733,37.1802,-80.6927,611.204,157.423
1.38,222.074,64.2176,63.271,34.8836,-114.832,-1706.97,157.365
1.4,221.467,64.4711,63.929,32.9013,-99.1175,785.724,157.315
1.42,220.882,64.7157,64.5625,31.6755,-61.2876,1891.5,157.269
1.44,220.35,64.9389,65.1395,28.8514,-141.203,-3995.77,157.233
1.46,219.841,65.1529,65.6919,27.618,-61.6717,3976.56,157.201
1.48,219.373,65.3497,66.1996,25.3877,-111.516,-2492.23,157.174
1.5,218.932,65.5356,66.6784,23.937,-72.5364,1948.99,157.151
1.52,218.539,65.7013,67.1049,21.3278,-130.458,-2896.09,157.133
1.54,218.146,65.867,67.5313,21.3175,-0.51372,6497.22,157.116
1.56,217.844,65.9946,67.8592,16.3948,-246.137,-12281.1,157.107
1.58,217.543,66.1216,68.1859,16.3351,-2.98381,12157.6,157.098
1.6,217.243,66.2484,68.5114,16.2749,-3.0112,-1.36906,157.09
1.62,217.099,66.3089,68.6673,7.79634,-423.927,-21045.8,157.087
1.64,216.976,66.3613,68.8014,6.70535,-54.5495,18468.9,157.085
1.66,216.851,66.4138,68.9365,6.75334,2.39983,2847.47,157.083
1.68,216.728,66.4662,69.0706,6.70535,-2.39983,-239.983,157.081
1.7,216.604,66.5187,69.2057,6.75334,2.39983,239.983,157.079
1.72,216.48,66.5711,69.3398,6.70535,-2.39983,-239.983,157.077
1.74,216.356,66.6236,69.4748,6.75334,2.39983,239.983,157.075
