"time","x","y","position","velocity","acceleration","jerk","heading"
0,4.99999999917012,43.2204,0,0,0,0,-9.90594E-09
0.02,4.99999999921533,43.2204,4.52127224548349E-11,2.26063612274174E-09,1.13031806137087E-07,5.65159030685436E-06,-9.36626E-09
0.04,4.99999999931243,43.2204,1.42303946404354E-10,4.85456119747596E-09,1.29696253736711E-07,8.3322237998118E-07,-8.20732E-09
0.06,4.99999999946921,43.2204,2.9908520104982E-10,7.83906273227331E-09,1.49225076739867E-07,9.76441150157831E-07,-6.33588E-09
0.08,4.99999999967361,43.2204,5.03491470738027E-10,1.02203134844103E-08,1.19062537606851E-07,-1.50812695665083E-06,-3.89596E-09
0.1,4.99999999988106,43.2204,7.10940639692126E-10,1.0372458447705E-08,7.60724816473157E-09,-5.57276447210596E-06,-1.41971E-09
0.12,4.99999999999865,43.2204,8.28530133389904E-10,5.87947468488892E-09,-2.24649188140802E-07,-1.16128218152767E-05,-1.60949E-11
0.14,5.00139999986618,43.2204,0.00140000069606305,0.0699999933766459,3.49999937485856,174.999979975387,-1.59731E-09
0.16,5.00333999923409,43.2204,0.00334000006397073,0.0969999683953838,1.34999875093689,-107.500031196083,-9.14235E-09
0.18,5.00573999773823,43.2204,0.00573999856810747,0.119999925206837,1.14999784057268,-10.0000455182105,-2.69979E-08
0.2,5.00863999487161,43.2204,0.00863999570148355,0.144999856668804,1.24999657309831,4.99993662628145,-6.12157E-08
0.22,5.01209998995302,43.2204,0.0120999907828976,0.172999754070702,1.39999487009491,7.49991484983006,-1.19927E-07
0.24,5.01615998209259,43.2204,0.0161599829224652,0.202999606978382,1.49999264538403,4.99988876445598,-2.13754E-07
0.26,5.02085997015462,43.2204,0.020859970984497,0.234999403101588,1.59998980616026,4.99985803881119,-3.56253E-07
0.28,5.0262599527171,43.2204,0.0262599535469814,0.269999128124221,1.74998625113165,7.49982224856975,-5.64398E-07
0.3,5.03239992802871,43.2204,0.0323999288585881,0.306998765580336,1.84998187280576,4.99978108370546,-8.59094E-07
0.32,5.03933989396245,43.2204,0.03933989479233,0.346998296687095,1.99997655533797,7.49973412661032,-1.26573E-06
0.34,5.0471198479687,43.2204,0.0471198487985749,0.388997700312243,2.0999701812574,4.99968129597183,-1.81474E-06
0.36,5.05577978702012,43.2204,0.0557797878500033,0.432996952571419,2.1999626129588,4.99962158506996,-2.54226E-06
0.38,5.06537970756296,43.2204,0.0653797083928414,0.479996027141904,2.34995372852425,7.49955577827223,-3.49071E-06
0.4,5.07595960545618,43.2204,0.0759596062860535,0.528994894660606,2.44994337593507,4.9994823705411,-4.70952E-06
0.42,5.087579475917,43.2204,0.0875794767468783,0.580993523041241,2.59993141903178,7.49940215483561,-6.25578E-06
0.44,5.10027931345561,43.2204000000001,0.100279314285488,0.634991876930479,2.6999176944619,4.99931377150588,-8.19502E-06
0.46,5.1140991118173,43.2204000000001,0.114099112647181,0.690989918084649,2.79990205770852,4.99921816233095,-1.06019E-05
0.48,5.12909886391632,43.2204000000001,0.129098864746199,0.749987604950909,2.949884343313,7.49911428022429,-1.3561E-05
0.5,5.14531856177051,43.2204000000002,0.145318562600384,0.810984892709232,3.0498643879161,4.99900223015505,-1.71676E-05
0.52,5.1628181964326,43.2204000000003,0.16281819726248,0.874981733104806,3.19984201977873,7.49888159313149,-2.15285E-05
0.54,5.18163775791653,43.2204000000005,0.181637758746411,0.940978074196551,3.29981705458725,4.99875174042596,-2.67629E-05
0.56,5.20181723514714,43.2204000000008,0.201817235977016,1.00897386153025,3.39978936668483,4.99861560487895,-3.3003E-05
0.58,5.22341661585964,43.2204000000012,0.223416616689517,1.07996903562504,3.54975870473982,7.49846690274937,-4.03952E-05
0.6,5.24647588655775,43.2204000000018,0.246475887387632,1.15296353490577,3.64972496403628,4.99831296482302,-4.91006E-05
0.62,5.27105503242154,43.2204000000026,0.271055033251422,1.22895729318948,3.7996879141855,7.49814750746089,-5.92961E-05
0.64,5.29719403726552,43.2204000000037,0.2971940380954,1.30695024219891,3.89964745047155,4.99797681430269,-7.11749E-05
0.66,5.32493288342137,43.2204000000053,0.32493288425125,1.38694230779248,3.99960327967851,4.99779146034773,-8.49479E-05
0.68,5.35433155171281,43.2204000000074,0.35433155254269,1.46993341457202,4.14955533897698,7.49760296492374,-0.000100844
0.7,5.3854300213802,43.2204000000104,0.385430022210077,1.55492348336935,4.24950343986642,4.99740504447186,-0.000119111
0.72,5.41828826996324,43.2204000000143,0.418288270793116,1.64291242915198,4.39944728913133,7.49719246324547,-0.000140017
0.74,5.4529462733345,43.2204000000196,0.452946274164377,1.73290016856304,4.49938697055341,4.99698407110393,-0.00016385
0.76,5.48944400560726,43.2204000000267,0.489444006437137,1.82488661363798,4.59932225374659,4.99676415965928,-0.000190919
0.78,5.52784143888417,43.2204000000359,0.527841439714051,1.91987166384568,4.74925251038537,7.49651283193877,-0.000221557
0.8,5.56817854350861,43.220400000048,0.568178544338485,2.01685523122172,4.84917836880205,4.99629292083412,-0.000256118
0.82,5.61051528789708,43.2204000000636,0.610515288726963,2.11683721942389,4.9990994101085,7.49605206532252,-0.000294979
0.84,5.65489163837173,43.2204000000838,0.654891639201608,2.21881752373227,5.09901521541897,4.99579026552372,-0.000338542
0.86,5.70134755924405,43.2204000001096,0.701347560073931,2.32279604361616,5.19892599419422,4.99553893876236,-0.000387233
0.88,5.74994301281494,43.2204000001425,0.749943013644819,2.42977267854436,5.34883174641009,7.49528761079365,-0.000441502
0.9,5.80071795903956,43.2204000001841,0.800717959869437,2.53874731123091,5.44873163432768,4.99499439587936,-0.000501827
0.92,5.85373235603001,43.2204000002365,0.853732356859884,2.65071984952234,5.59862691457135,7.49476401218358,-0.000568708
0.94,5.90902615955266,43.220400000302,0.909026160382534,2.76469017613251,5.69851633050867,4.99447079686573,-0.000642673
0.96,5.96663932327949,43.2204000003835,0.966639324109368,2.88065818634173,5.79840051046087,4.99420899761022,-0.000724275
0.98,6.02663179862054,43.2204000004845,1.02663179945042,2.99962376705265,5.94827903554584,7.49392625424838,-0.000814094
1,6.08900354142596,43.220400000609,1.08900354225584,3.11858714027106,5.94816866092084,-0.00551873124976509,-0.000912657
1.02,6.15369451349399,43.2204000007612,1.15369451432387,3.23454860340124,5.79807315650882,-7.50477522060144,-0.00102042
1.04,6.22066467821459,43.2204000009465,1.22066467904447,3.34850823603005,5.69798163144061,-5.0045762534101,-0.00113782
1.06,6.28987399763733,43.2204000011705,1.28987399846721,3.46046597113689,5.59788675534189,-5.00474380493609,-0.00126531
1.08,6.36126243825188,43.2204000014397,1.36126243908176,3.56942203072767,5.44780297953906,-7.50418879014165,-0.00140329
1.1,6.43478996571017,43.2204000017613,1.43478996654005,3.67637637291453,5.347717109343,-5.00429350980269,-0.00155217
1.12,6.51039654650188,43.2204000021436,1.51039654733176,3.78032903958525,5.19763333353571,-7.50418879036484,-0.00171235
1.14,6.58804215046771,43.2204000025955,1.58804215129759,3.88228019829162,5.09755793531851,-5.00376991086014,-0.00188419
1.16,6.66768674912389,43.2204000031267,1.66768674995377,3.98222993280921,4.99748672587958,-5.00356047194623,-0.00206803
1.18,6.74927031398666,43.220400003748,1.74927031481654,4.07917824313823,4.84741551645129,-7.50356047141464,-0.00226421
1.2,6.83275281992326,43.2204000044712,1.83275282075314,4.17412529683014,4.74735268459536,-5.00314159279646,-0.00247303
1.22,6.91807424431424,43.2204000053089,1.91807424514412,4.26607121954889,4.59729613593755,-7.50282743289032,-0.00269476
1.24,7.00519456537788,43.2204000062748,2.00519456620776,4.35601605318205,4.49724168165795,-5.00272271398034,-0.00292966
1.26,7.09407376468351,43.2204000073835,2.09407376551339,4.4439599652815,4.39719560497264,-5.00230383426503,-0.00317795
1.28,7.18465182547597,43.2204000086505,2.18465182630585,4.52890303962303,4.24715371707629,-7.50209439481785,-0.00343983
1.3,7.27688873351337,43.2204000100924,2.27688873434325,4.61184540187016,4.14711811235646,-5.0017802359914,-0.00371547
1.32,7.37072447790487,43.2204000117266,2.37072447873475,4.69178721957477,3.99709088523048,-7.50136135629908,-0.004005
1.34,7.46611904859736,43.2204000135714,2.46611904942724,4.7697285346246,3.89706575249171,-5.0012566369384,-0.00430854
1.36,7.56303243888879,43.2204000156462,2.56303243971867,4.84566951457128,3.79704899733379,-5.00083775789583,-0.00462617
1.38,7.66140464542812,43.2204000179708,2.661404646258,4.91861032696655,3.64704061976363,-7.50041887850797,-0.00495793
1.4,7.76119566653984,43.2204000205659,2.76119566736972,4.98955105558609,3.54703643097704,-5.00020943932957,-0.00530384
1.42,7.86234550222396,43.2203000234529,2.86234555248258,5.05749425564337,3.39716000286372,-7.49382140566634,-0.0056639
1.44,7.96481415750702,43.2203000266538,2.96481420776565,5.12343276415303,3.29692542548336,-5.01172886901768,-0.00603805
1.46,8.06856163741558,43.2203000301911,3.06856168767421,5.18737399542797,3.19706156374666,-4.99319308683519,-0.00642623
1.48,8.17352795116497,43.2203000340875,3.1735280014236,5.24831568746986,3.04708460209473,-7.49884808259659,-0.00682833
1.5,8.27967310964607,43.2203000383662,3.2796731599047,5.30725792405491,2.94711182925233,-4.99863864211969,-0.00724422
1.52,8.38693712710076,43.2203000430506,3.38693717735939,5.36320087273436,2.79714743397279,-7.49821976397724,-0.00767373
1.54,8.49528001860869,43.220300048164,3.49528006886732,5.41714457539646,2.69718513310488,-4.99811504339529,-0.00811668
1.56,8.6046618034383,43.2203000537298,3.60466185369693,5.46908924148042,2.59723330419792,-4.99759144534817,-0.00857284
1.58,8.71502250253354,43.2202000597711,3.71502259809267,5.51803721978738,2.44739891534786,-7.49171944250281,-0.00904196
1.6,8.82632213767614,43.2202000663109,3.82632223323527,5.56498175713003,2.34722686713273,-5.00860241075651,-0.00952378
1.62,8.93850073399885,43.2202000733716,3.93850082955798,5.60892981613508,2.19740295025259,-7.49119584400712,-0.010018
1.64,9.05151831830991,43.2202000809753,4.05151841386904,5.65087921555348,2.09746997091964,-4.99664896664754,-0.0105243
1.66,9.16533493082174,43.2202000891409,4.16533502638087,5.69083062559131,1.99757050189184,-4.99497345138992,-0.0110422
1.68,9.27989057991192,43.2201000978933,4.27989071911031,5.72778463647195,1.84770054403183,-7.49349789300078,-0.0115716
1.7,9.39514532422351,43.2201001072466,4.3951454634219,5.76273721557962,1.74762895538345,-5.0035794324188,-0.0121118
1.72,9.51103918051169,43.2201001172227,4.51103931971008,5.79469281440918,1.59777994147805,-7.49245069527003,-0.0126626
1.74,9.62753219066438,43.2201001278377,4.62753232986277,5.82465050763414,1.49788466124807,-4.99476401149889,-0.0132235
1.76,9.74458438819189,43.2200001391082,4.74458457009663,5.85261201169299,1.39807520294246,-4.99047291528054,-0.0137941
1.78,9.86213582335972,43.220000151046,4.86213600526446,5.87757175839177,1.24798733493883,-7.5043934001817,-0.0143738
1.8,9.98014652967821,43.2200001636654,4.98014671158295,5.90053531592434,1.14817787662886,-4.99047291549814,-0.0149622
1.82,10.0985965490353,43.2199001769775,5.09859677314065,5.922503077885,1.09838809803264,-2.48948892981103,-0.0155588
1.84,10.2173459316964,43.2199001909897,5.21734615580176,5.93746913305532,0.748302758516183,-17.5042669758229,-0.016163
1.86,10.3363947111719,43.2199002057122,5.33639493527725,5.95243897377462,0.748492035964831,0.00946387243239143,-0.0167744
1.88,10.4557429461048,43.2198002211465,5.45574321209147,5.96741384071113,0.748743346825539,0.0125655430353867,-0.0173923
1.9,10.5752906700055,43.2198002372997,5.57529093599221,5.9773861950371,0.498617716298488,-12.5062815263525,-0.0180163
1.92,10.6950379331396,43.2198002541722,5.69503819912623,5.98736315670104,0.498848083197112,0.0115183449311829,-0.0186458
1.94,10.8148847773948,43.219700271765,5.81488508508667,5.99234429802203,0.249057066049296,-12.4895508573908,-0.0192803
1.96,10.9348312614143,43.2197002900717,5.93483156910615,5.99732420097394,0.248995147595687,-0.00309592268044056,-0.0199191
1.98,11.0547774354635,43.2196003090863,6.05477778482489,5.99731078593658,-0.000670751868092622,-12.483294973189,-0.0205616
2,11.1747233246752,43.2196003288099,6.17472367403662,5.99729446058664,-0.000816267496794864,-0.00727578143511208,-0.0212075
2.02,11.2946689541822,43.2196003492426,6.2946693035436,5.99728147534914,-0.000649261875063089,0.00835028108658873,-0.0218565
2.04,11.4146143658723,43.2195003703767,6.41461475690175,5.99727266790727,-0.000440372093546415,0.0104444890758337,-0.0225081
2.06,11.5345595681232,43.2195003922163,6.53455995915264,5.99726011254483,-0.000627768122107852,-0.00936980142807185,-0.0231622
2.08,11.6545046028228,43.2194004147511,6.65450503551916,5.99725381832595,-0.000314710943971619,0.0156528589068116,-0.0238183
2.1,11.7744494867262,43.2194004379797,6.77444991942255,5.99724419516916,-0.000481157839571366,-0.00832234477998737,-0.0244762
2.12,11.8943942365885,43.2193004619,6.89439471095083,5.99723957641444,-0.000230937735912206,0.012511005182958,-0.0251357
2.14,12.0143388942978,43.2193004864977,7.01433936866012,5.99723288546426,-0.000334547508717975,-0.00518048864028841,-0.0257963
2.16,12.1342834766092,43.2192005117683,7.13428399263632,5.9972311988098,-8.43327233379653E-05,0.0125107392690005,-0.0264578
2.18,12.2542280002778,43.2191005377066,7.25422855796922,5.99722826664508,-0.000146608235640499,-0.00311377561512671,-0.02712
2.2,12.3741725071915,43.2191005642941,7.37417306488296,5.99722534568695,-0.000146047906746105,2.80164447197251E-05,-0.0277824
2.22,12.494117005728,43.2190005915273,7.49411760508266,5.99722700998527,8.3214915802543E-05,0.0114631411274324,-0.0284449
2.24,12.6140615210199,43.2190006193938,7.61406212037461,5.99722576459747,-6.22693897334158E-05,-0.00727421527679793,-0.0291072
2.26,12.7340060782001,43.2189006478798,7.73400671921695,5.99722994211715,0.000208875984064609,0.0135572686899015,-0.029769
2.28,12.8539507024012,43.2188006769707,7.85395138507973,5.99723329313898,0.000167551091356799,-0.00206624463539052,-0.03043
2.3,12.9738954103785,43.218800706655,7.973896093057,5.99723539886341,0.000105286221563361,-0.0031132434896719,-0.03109
2.32,13.0938402356422,43.2187007369111,8.09384095998133,5.99724334621628,0.000397367643234503,0.0146040710835571,-0.0317486
2.34,13.2137851949475,43.2186007677257,8.21378596094675,5.99725004827135,0.000335102753501459,-0.00311324448665217,-0.0324056
2.36,13.3337303050496,43.2186007990845,8.33373107104887,5.99725550510588,0.000272841726767225,-0.00311305133671169,-0.0330608
2.38,13.4536755827037,43.2185008309723,8.45367639036202,5.99726596565726,0.000523027569077072,0.0125092921154923,-0.033714
2.4,13.5736210697976,43.2184008633583,8.57362191911451,5.99727643762467,0.000523598370349986,2.85400636457211E-05,-0.0343647
2.42,13.6935667663313,43.2184008962355,8.69356761564825,5.99728482668715,0.000419453124189672,-0.00520726230801571,-0.0350129
2.44,13.8135127058152,43.2183009295758,8.8135135967898,5.99729905707728,0.000711519506157998,0.0146033190984163,-0.0356582
2.46,13.9334588966269,43.2182009633657,8.93345982925863,5.99731162344122,0.000628318197071209,-0.00416006545433944,-0.0363005
2.48,14.0534053722766,43.2181009975752,9.05340634656506,5.99732586532164,0.000712094021348974,0.00418879121388826,-0.0369394
2.5,14.1733521411419,43.2181010321892,9.1733531154304,5.99733844326689,0.000628897262089367,-0.00415983796298035,-0.0375748
2.52,14.2932992283556,43.2180010671813,9.29330024429997,5.99735644347874,0.000900010592763677,0.0135556665337155,-0.0382064
2.54,14.4132466590504,43.2179011025238,9.41324771665024,5.99737361751351,0.000858701738293276,-0.00206544272352005,-0.0388339
2.56,14.5331944416039,43.2178011381998,9.5331955408588,5.99739121042781,0.000879645715290422,0.00104719884985727,-0.0394572
2.58,14.6531426011488,43.21770117418,9.65314374205839,5.99741005997938,0.0009424775782918,0.00314159315006889,-0.040076
2.6,14.7730911460627,43.2176012104465,9.7730923286266,5.99742932841053,0.000963421557598209,0.00104719896532046,-0.0406902
2.62,14.8930401098559,43.2176012469626,9.89304129241981,5.99744818966067,0.000943062506708613,-0.00101795254447978,-0.0412994
2.64,15.012989500906,43.2175012837089,10.0129907251235,5.99747163518484,0.00117227620859417,0.0114606850942778,-0.0419035
2.66,15.1329393359681,43.2174013206594,10.1329406018389,5.99749383577006,0.00111002926135306,-0.00311234736205534,-0.0425023
2.68,15.2528896317974,43.2173013577875,10.2528909393212,5.99751687411379,0.00115191718639274,0.00209439625198371,-0.0430956
2.7,15.3728404135266,43.2172013950599,10.3728417627031,5.99754116909478,0.00121474904961616,0.00314159316117113,-0.0436831
2.72,15.4927916895333,43.2171014324551,10.4927930803622,5.99756588295506,0.00123569301355708,0.00104719819704613,-0.0442647
2.74,15.6127434849502,43.2170014699383,10.6127449174312,5.997591853453,0.0012985248971642,0.00314159418035586,-0.0448401
2.76,15.7326957997773,43.2169015074939,10.7326972739103,5.99761782395102,0.00129852490089458,1.8651891012592E-10,-0.0454093
2.78,15.8526486675249,43.2168015450796,10.8526501833096,5.99764546996532,0.00138230071531353,0.00418879072094779,-0.0459719
2.8,15.9726020965706,43.2167015826723,10.9726036540067,5.99767353485885,0.00140324467610142,0.00104719803939446,-0.0465278
2.82,16.0925561036695,43.2166016202418,11.092557702757,5.99770243751093,0.00144513260411649,0.00209439640075359,-0.0470768
2.84,16.2125106971992,43.2165016577645,11.2125123379378,5.99773175904202,0.00146607655473474,0.00104719753091231,-0.0476188
2.86,16.3324659022924,43.2164016952028,11.332467584682,5.99776233721047,0.00152890842253228,0.00314159338987707,-0.0481535
2.88,16.4524217189491,43.2163017325395,11.4524234429896,5.9977929153791,0.00152890843150288,4.48530101948563E-10,-0.0486809
2.9,16.5723781806796,43.2162017697289,11.5723799463709,5.99782516906407,0.00161268424836436,0.00418879084307376,-0.0492006
2.92,16.6923352874839,43.2161018067535,11.6923370948259,5.99785742274906,0.00161268424943017,5.32907051820075E-11,-0.0497126
2.94,16.8122930561171,43.2160018435813,11.8122949051097,5.99789051419233,0.00165457216354525,0.00209439570575398,-0.0502167
2.96,16.9322515033344,43.2159018801799,11.9322533939776,5.99792444339372,0.00169646006948909,0.00209439529719191,-0.0507127
2.98,17.0522106375133,43.2158019165244,12.0522125698071,5.99795879147428,0.00171740402779008,0.00104719791504948,-0.0512005
3,17.172170475409,43.215701952582,12.1721724493533,5.99799397731296,0.00175929193444446,0.00209439533271904,-0.0516799
3.02,17.292131025399,43.2156019883274,12.2921330409939,5.99802958203083,0.00178023589318954,0.00104719793725394,-0.0521508
3.04,17.4120923042386,43.2155020237277,12.4120943614841,5.99806602450648,0.00182212378270208,0.00209439447562687,-0.052613
3.06,17.5320543203051,43.2154020587575,12.5320564192013,5.99810288586167,0.00184306775934395,0.00104719883209369,-0.0530664
3.08,17.6520170819763,43.2153020933915,12.6520192225232,5.99814016609585,0.00186401170920725,0.00104719749316473,-0.0535109
3.1,17.7719806143848,43.2152021275886,12.7719827965826,5.99817870296664,0.00192684353934602,0.00314159150693882,-0.0539462
3.12,17.8919449175306,43.2150021613314,12.8919472663883,5.99822349028578,0.00223936595675766,0.0156261208705821,-0.0543723
3.14,18.0119099997913,43.2149021945945,13.0119123903,5.99825619558814,0.00163526511802736,-0.0302050419365151,-0.0547891
3.16,18.1318758779221,43.2148022273448,13.131878310082,5.99829598909627,0.00198967540661066,0.0177205144291648,-0.0551964
3.18,18.2518425603003,43.2147022595573,13.2518450341116,5.99833620148321,0.00201061934714808,0.00104719702687106,-0.0555941
3.2,18.3718100553038,43.2146022912069,13.3718125707666,5.99837683274967,0.00203156332281296,0.00104719878324388,-0.0559821
3.22,18.4917783796875,43.2145023222608,13.4917809368021,5.99841830177374,0.00207345120353253,0.00209439403597855,-0.0563602
3.24,18.6117475334514,43.2143023527025,13.6117502572247,5.99846602113044,0.00238596783495026,0.0156258315708868,-0.0567284
