"time',"x',"y',"heading',"position',"velocity',"acceleration',"jerk'
0,4.366831,45.770446,0,0,0,0,0
0.02,4.56277640874944,45.7705540000473,-0.021289,0.195945438512853,9.79727192564264,489.863596282132,24493.1798141066
0.04,4.75872081749888,45.7705890001892,-0.042578,0.391889850388204,4.89861029688379,-122.466540718971,-15308.2534250276
0.06,4.95466522624832,45.7705520004258,-0.063867,0.587834262630937,3.26574020404554,-27.214501547304,1587.53398619445
0.08,5.15060963499776,45.770442000757,-0.085156,0.783778702256294,2.44930549531697,-10.2054338591072,212.61334610246
0.1,5.3465540437472,45.7702590011828,-0.106445,0.979723196460682,1.95944494204388,-4.89860553273089,53.0682832637633
0.12,5.54249845249665,45.7700030017032,-0.127734,1.17566777244048,1.63287146649834,-2.72144562954611,18.1429991932065
0.14,5.73844286056071,45.7696740023183,-0.149024,1.37161245670666,1.39960488761553,-1.66618984916295,7.53754128845112
0.16,5.93438726931017,45.769272003028,-0.170313,1.56755727782628,1.22465513199767,-1.09343597261162,3.5797117284458
0.18,6.13033167805963,45.7687980038323,-0.191602,1.76350225988863,1.0885832336797,-0.755954990655376,1.87489434420138
0.2,6.32627508680909,45.7682510047313,-0.212891,1.95944643214281,0.97972086127091,-0.544311862043967,1.05821564305704
0.22,6.74214065487926,45.7666600105944,-0.318571,2.37531504356794,1.89031187011422,4.13905004019686,21.2880086465492
0.24,7.21513219647708,45.7638650207813,-0.446175,2.8483148431357,1.97083249819899,0.335502617019861,-15.8481142632375
0.26,7.68811673876075,45.7600170343676,-0.573778,3.32131503789119,1.81923151829036,-0.583080691956252,-3.5330127268312
0.28,8.16109128035963,45.7551150513536,-0.701382,3.79431498127188,1.6892855120739,-0.464092879344498,0.424956473613407
0.3,8.71522552734769,45.7478470839059,-0.896531,4.34849688916481,1.84727302630976,0.526625047452859,3.30239308932452
0.32,9.33150431093227,45.7372651364819,-1.143422,4.96486651585628,1.92615508341083,0.246506428440863,-0.875370684412488
0.34,9.94773109520667,45.7240272017839,-1.390312,5.58123547400735,1.81284987691493,-0.3332506073409,-1.7051677522993
0.36,10.6008512905187,45.7069922937404,-1.677455,6.2345777867474,1.81483975761125,0.00552744637867993,0.941050149221055
0.38,11.3315484854752,45.6835234383692,-2.049222,6.96565177608757,1.92387891931622,0.286945162381486,0.740572936849491
0.4,12.0620776797644,45.6553126118542,-2.42099,7.69672547582062,1.82768424933263,-0.240486674958958,-1.31857959335111
0.42,12.8503137035517,45.6192648548188,-2.861581,8.48578534045917,1.87871396342512,0.121499319267813,0.861871414825646
0.44,13.6788616196664,45.5744511718587,-3.350477,9.3155442906841,1.88581579596575,0.0161405285014379,-0.239451797196306
0.46,14.5226498930802,45.521477548926,-3.851983,10.1609937895172,1.83793369311551,-0.104091527935291,-0.261374035732019
0.48,15.4380533194341,45.4553060316996,-4.411627,11.0787857608661,1.91206660697688,0.154443570544503,0.538614788499571
0.5,16.3527667458758,45.3801925798638,-4.971271,11.9965780484561,1.83558457517984,-0.152964063594066,-0.614815268277138
0.52,17.3466272722603,45.2884601730652,-5.513261,12.9946630049414,1.91939414708723,0.161172253668059,0.604108302427163
0.54,18.3395757994333,45.1873278275954,-6.05525,13.992748436613,1.8483063549474,-0.131644059518219,-0.54225243182644
0.56,19.4052845565046,45.0694073481936,-6.453919,15.0649612859861,1.91466580245201,0.118499013401093,0.446684058784485
0.58,20.4795404055306,44.9429628331415,-6.804306,16.1466330682535,1.86495134873683,-0.0857145753709953,-0.352092394434634
0.6,21.6133759474894,44.8057458860527,-6.84145,17.2887414373574,1.90351394850655,0.0642709996162042,0.249975958311999
0.62,22.7721251350472,44.6655276408194,-6.667552,18.4559435775038,1.88258409701029,-0.0337578249939759,-0.158111007435774
0.64,23.9722719459825,44.5288699500282,-6.151332,19.6638457640448,1.88734716647027,0.00744229603122475,0.0643751891018759
0.66,25.2190711239469,44.4023687877542,-5.167688,20.9170459612318,1.89878817755607,0.0173348652815102,0.0149887412883114
0.68,26.4941555917886,44.2988166132974,-3.93121,22.196328358893,1.88129764361938,-0.0257213734363016,-0.0633179981144292
0.7,27.8220072783186,44.2261415357655,-2.26546,23.5261673597931,1.89977000128583,0.0263890823806328,0.0744435083099063
0.72,29.1880170754895,44.1929740234613,-0.474073,24.8925797608782,1.89779500150716,-0.00274305524814321,-0.0404613022621889
0.74,30.5854597660044,44.204486193345,1.360929,26.2900698693687,1.88850014660883,-0.0125606147274778,-0.0132669722693711
0.76,32.0252206075617,44.2613859993283,3.09402,27.7309546214578,1.89590098959084,0.00973795129211848,0.0293402184468373
0.78,33.5050458193695,44.3622111601783,4.548978,29.2142106245006,1.9016102603113,0.00731957784674674,-0.00310047877611762
0.8,35.0154925405941,44.5009924279082,5.730383,30.7310196230007,1.8960112481251,-0.0069987652327555,-0.0178979288493778
0.82,36.5582089687404,44.669951538022,6.593293,32.2829607167806,1.89261108997556,-0.00414653432870512,0.00347833037079314
0.84,38.1388568467249,44.8606512032144,7.060004,33.8750706616278,1.89536898196091,0.00328320474446314,0.00884492746805746
0.86,39.7616337646147,45.0640461879947,7.049671,35.5105444293996,1.9017136834556,0.00737755987754782,0.00476087806172638
0.88,41.4061269476797,45.265506590349,6.631197,37.1673317189646,1.88271282905116,-0.0215918800050399,-0.0329198180483951
0.9,43.0493534919062,45.4493674944752,5.785755,38.8208123834166,1.83720073827999,-0.05056898974575,-0.032196788600789
0.92,44.6714258398617,45.6005611133495,4.499401,40.4499158830108,1.77076467347198,-0.0722131139217481,-0.0235262219304327
0.94,46.2612766912814,45.7052977860001,2.743976,42.0432129364061,1.69499686531409,-0.0806040512318006,-0.00892652905324732
0.96,47.8053651041512,45.7499180087028,-0.288735,43.5879459201391,1.6090968580552,-0.0894791742280067,-0.00924491978771478
0.98,49.3080161082979,45.6744526388429,-6.666132,45.0924907225,1.53524979832744,-0.075354142579352,0.0144132976006681
1,50.7533374300638,45.4087382099881,-14.254092,46.5620341484839,1.46954342598397,-0.065706372343465,0.009647770235887
1.02,52.1201287039215,44.9632737960677,-21.840739,47.9995865580896,1.40936510745653,-0.0589983514974937,0.00657649102546203
1.04,53.3678221020429,44.3635071475327,-29.386467,49.3839488114073,1.33111755126699,-0.0752380347976341,-0.0156150800962888
1.06,54.4994587409612,43.6229190489324,-36.758364,50.7363807743284,1.27587921030294,-0.0521116424189166,0.0218173513006769
1.08,55.5057339494863,42.7615926396857,-43.950139,52.0609459779171,1.22644926258218,-0.0457684701118124,0.00587330769176313
1.1,56.3637931023547,41.8240412804543,-50.505995,53.3318779434519,1.15539269594065,-0.0645968787650234,-0.0171167351392827
1.12,57.0934255964783,40.8209518156104,-56.54936,54.5722617755626,1.10748556438459,-0.0427742246036291,0.019484512644102
1.14,57.7039047407987,39.7756904504317,-62.091432,55.7827394115334,1.06182248769369,-0.0400553304306178,0.00238499488860642
1.16,58.1955427531511,38.7300336540333,-66.645907,56.9382073128807,0.99609301840286,-0.0566633355955396,-0.0143172458318291
1.18,58.599624436543,37.6655848669923,-70.909117,58.076773616214,0.964886697740041,-0.0264460344600159,0.0256078823182404
1.2,58.9166380334627,36.635353632423,-74.194773,59.1546762172471,0.898252167527646,-0.055528775176996,-0.02423561726415
1.22,59.1707701950276,35.6074136795211,-77.234495,60.2135641727522,0.867940947135273,-0.024845262616699,0.025150420131391
1.24,59.3679686875766,34.6224289840292,-79.57472,61.2180949566592,0.810105470892758,-0.0466415130988021,-0.0175776213565348
1.26,59.5224672674805,33.6515339403941,-81.710531,62.2012058338992,0.780246727968242,-0.0236974150194569,0.0182096016502739
1.28,59.6398276253058,32.733964204883,-83.293551,63.1262505209899,0.722691161789623,-0.0449652860770463,-0.0166155242637417
1.3,59.731100130671,31.8229048773339,-84.813616,64.0418704031189,0.70432298625304,-0.0141293657973714,0.023719938676673
1.32,59.797236655361,30.9876947216821,-85.815539,64.8796949933535,0.634715598662643,-0.0527328693866647,-0.0292450784767374
1.34,59.8487571855291,30.151443775544,-86.817462,65.7175314988519,0.625251123506251,-0.00706304116148684,0.034081961362073
1.36,59.8845227016235,29.3848973768072,-87.50999,66.4849118175713,0.5642502343525,-0.0448535949659931,-0.0277871719150781
1.38,59.9114490722647,28.6452138799283,-88.083051,67.2250852465668,0.536357557243102,-0.0202120848618826,0.017856166742109
1.4,59.9309363705935,27.9074943455437,-88.650382,67.9630621203296,0.527126338402009,-0.00659372774363818,0.00972739794160317
1.42,59.9432614745594,27.2805365099466,-88.929006,68.5901410912769,0.44160490911782,-0.0602263586508371,-0.0377694583853513
1.44,59.9525375796495,26.653525690533,-89.207629,69.2172205230776,0.435471827639337,-0.00425908436005742,0.0388661627019303
1.46,59.9587646851799,26.0264768873212,-89.486252,69.8443002456429,0.429506659291317,-0.00408573174521961,0.000118734667697128
1.48,59.9622004496877,25.5156892129535,-89.610659,70.3550994750508,0.345134614464823,-0.0570081383962794,-0.0357583828723377
1.5,59.9647068391441,25.02869495066,-89.703503,70.8421001870574,0.324667141337681,-0.0136449820847612,0.0289087708743455
1.52,59.9664252279646,24.5416966901843,-89.796348,71.3291014792184,0.320395586948026,-0.00281023315108895,0.00712812429846856
1.54,59.9673546168343,24.0546964315077,-89.889193,71.8161026247147,0.316234510062575,-0.00270199797756553,7.0282580210013E-05
1.56,59.9676696340755,23.7311320610922,-89.922738,72.1396671484782,0.207413156258618,-0.0697572780794599,-0.0429841539114707
1.58,59.9679001901158,23.4700702650607,-89.933603,72.4007290463171,0.165229049265149,-0.0266988018946009,0.0272522001169993
1.6,59.9680817454717,23.2090084690726,-89.944469,72.6617909054364,0.163163661949602,-0.00129086707221653,0.0158799592639902
1.62,59.9682133008282,22.9479476731092,-89.955335,72.922851734547,0.161148659944759,-0.00124382839805154,2.90362186203629E-05
1.64,59.9682958561854,22.6868858771704,-89.966201,73.1839135435389,0.15918402987316,-0.00119794516560899,2.7977580757653E-05
1.66,59.9683284115432,22.4258240812563,-89.977067,73.444975341483,0.157266143339771,-0.00115535333336659,2.56577302665097E-05
1.68,59.9683109669018,22.1647622853668,-89.987933,73.7060371379553,0.155393926471628,-0.00111441480246636,2.43681731548977E-05
1.7,59.968250959375,21.9164234775154,-89.998161,73.9543759530567,0.146081655941979,-0.00547780619391131,-0.00256670081849703
1.72,59.9682495256867,21.859438489408,-89.998794,74.0113609411821,0.0331308070496769,-0.0656690981931986,-0.034994937208888
1.74,59.9682470919983,21.8024535013007,-89.999427,74.0683459293414,0.0327499931949956,-0.000218858537173176,0.0376150802620836
