"time","x","y","position","velocity","acceleration","jerk","heading"
0,425.468,26.4319,0,0,150,0,180
0.02,425.295,26.4319,0.173205,3,150,0,179.998
0.04,425.122,26.4319,0.34641,6,150,0,179.996
0.06,424.949,26.4319,0.519615,9,150,0,179.994
0.08,424.776,26.4319,0.69282,12,150,0,179.992
0.1,424.602,26.432,0.866025,15,150,0,179.99
0.12,424.374,26.432,1.09471,18,150,0,179.985
0.14,423.956,26.4321,1.51286,21,150,0,179.972
0.16,423.537,26.4324,1.93102,24,150,0,179.959
0.18,423.013,26.4328,2.45505,27,150,0,179.933
0.2,422.468,26.4336,3,30,150,0,179.905
0.22,421.822,26.4348,3.64641,33,150,0,179.86
0.24,421.136,26.4368,4.33237,36,150,0,179.805
0.26,420.395,26.4397,5.07309,39,150,0,179.738
0.28,419.584,26.444,5.88465,42,150,0,179.65
0.3,418.711,26.45,6.75708,45,150,0,179.541
0.32,417.781,26.4584,7.68717,48,150,0,179.411
0.34,416.792,26.4699,8.67644,51,150,0,179.253
0.36,415.744,26.4851,9.72525,54,150,0,179.066
0.38,414.636,26.5052,10.8333,57,150,0,178.842
0.4,413.469,26.5312,12,60,150,0,178.581
0.42,412.236,26.5648,13.2333,63,150,0,178.275
0.44,410.946,26.6074,14.5243,66,150,0,177.92
0.46,409.6,26.6608,15.8718,69,62.8197,0,177.517
0.48,408.21,26.7264,17.2632,70,0,0,177.058
0.5,406.812,26.8041,18.6632,70,0,0,176.56
0.52,405.415,26.8943,20.0632,70,0,0,176.035
0.54,404.019,26.9978,21.4632,70,0,0,175.476
0.56,402.624,27.1151,22.8632,70,0,0,174.907
0.58,401.23,27.2464,24.2632,70,0,0,174.337
0.6,399.837,27.3914,25.6632,70,0,0,173.783
0.62,398.446,27.5496,27.0632,70,0,0,173.264
0.64,397.057,27.7198,28.4632,70,0,0,172.802
0.66,395.668,27.9003,29.8632,70,0,0,172.418
0.68,394.281,28.0892,31.2632,70,0,0,172.121
0.7,392.895,28.2839,32.6632,70,0,0,171.939
0.72,391.509,28.4818,34.0632,70,0,0,171.847
0.74,390.123,28.6805,35.4632,70,0,0,171.885
0.76,388.737,28.8772,36.8632,70,0,0,172.006
0.78,387.35,29.0697,38.2632,70,0,0,172.225
0.8,385.963,29.2561,39.6632,70,0,0,172.516
0.82,384.574,29.4345,41.0632,70,0,0,172.868
0.84,383.184,29.6036,42.4632,70,0,0,173.274
0.86,381.793,29.7625,43.8632,70,0,0,173.711
0.88,380.401,29.9103,45.2632,70,0,0,174.18
0.9,379.008,30.0465,46.6632,70,0,0,174.666
0.92,377.613,30.1706,48.0632,70,0,0,175.165
0.94,376.218,30.2824,49.4632,70,0,0,175.674
0.96,374.821,30.3818,50.8632,70,0,0,176.187
0.98,373.424,30.4686,52.2632,70,0,0,176.704
1,372.026,30.5428,53.6632,70,0,0,177.224
1.02,370.627,30.6042,55.0632,70,0,0,177.748
1.04,369.228,30.6528,56.4632,70,0,0,178.276
1.06,367.829,30.6884,57.8632,70,0,0,178.809
1.08,366.429,30.7141,59.2632,70,0,0,179.01
1.1,365.029,30.7371,60.6632,70,0,0,179.1
1.12,363.629,30.7581,62.0632,70,0,0,179.183
1.14,362.229,30.7771,63.4632,70,0,0,179.26
1.16,360.83,30.7943,64.8632,70,0,0,179.331
1.18,359.43,30.8098,66.2632,70,0,0,179.398
1.2,358.03,30.8237,67.6632,70,0,0,179.46
1.22,356.63,30.8362,69.0632,70,0,0,179.517
1.24,355.23,30.8473,70.4632,70,0,0,179.57
1.26,353.83,30.8572,71.8632,70,0,0,179.619
1.28,352.43,30.866,73.2632,70,0,0,179.664
1.3,351.03,30.8736,74.6632,70,0,0,179.705
1.32,349.63,30.8804,76.0632,70,0,0,179.743
1.34,348.23,30.8862,77.4632,70,0,0,179.777
1.36,346.83,30.8913,78.8632,70,0,0,179.808
1.38,345.43,30.8956,80.2632,70,0,0,179.835
1.4,344.03,30.8993,81.6632,70,0,0,179.86
1.42,342.63,30.9025,83.0632,70,0,0,179.881
1.44,341.23,30.9051,84.4632,70,0,0,179.899
1.46,339.83,30.9074,85.8632,70,0,0,179.914
1.48,338.43,30.9093,87.2632,70,0,0,179.926
1.5,337.03,30.911,88.6632,70,0,0,179.935
1.52,335.63,30.9125,90.0632,70,0,0,179.942
1.54,334.23,30.9139,91.4632,70,0,0,179.945
1.56,332.83,30.9152,92.8632,70,0,0,179.945
1.58,331.43,30.9166,94.2632,70,0,0,179.942
1.6,330.03,30.918,95.6632,70,0,0,179.937
1.62,328.63,30.9197,97.0632,70,0,0,179.929
1.64,327.23,30.9215,98.4632,70,0,0,179.918
1.66,325.83,30.9237,99.8632,70,0,0,179.904
1.68,324.43,30.9262,101.263,70,0,0,179.888
1.7,323.03,30.9292,102.663,70,0,0,179.868
1.72,321.63,30.9327,104.063,70,0,0,179.847
1.74,320.23,30.9367,105.463,70,0,0,179.823
1.76,318.83,30.9413,106.863,70,0,0,179.797
1.78,317.43,30.9466,108.263,70,0,0,179.768
1.8,316.03,30.9526,109.663,70,0,0,179.738
1.82,314.63,30.9594,111.063,70,0,0,179.707
1.84,313.23,30.967,112.463,70,0,0,179.674
1.86,311.83,30.9753,113.863,70,0,0,179.64
1.88,310.43,30.9846,115.263,70,0,0,179.605
1.9,309.03,30.9946,116.663,70,0,0,179.57
1.92,307.63,31.0056,118.063,70,0,0,179.536
1.94,306.23,31.0173,119.463,70,0,0,179.501
1.96,304.83,31.0299,120.863,70,0,0,179.468
1.98,303.43,31.0433,122.263,70,0,0,179.436
2,302.03,31.0575,123.663,70,0,0,179.406
2.02,300.63,31.0724,125.063,70,0,0,179.378
2.04,299.231,31.0879,126.463,70,0,0,179.352
2.06,297.831,31.104,127.863,70,0,0,179.33
2.08,296.431,31.1206,129.263,70,0,0,179.311
2.1,295.031,31.1377,130.663,70,-58.0327,0,179.295
2.12,293.642,31.155,132.052,68.6226,-150,0,179.282
2.14,292.303,31.1719,133.391,65.6226,-150,0,179.274
2.16,291.021,31.1882,134.674,62.6226,-150,0,179.27
2.18,289.796,31.2038,135.899,59.6226,-150,0,179.268
2.2,288.633,31.2187,137.062,56.6226,-150,0,179.269
2.22,287.533,31.2327,138.162,53.6226,-150,0,179.272
2.24,286.492,31.2459,139.203,50.6226,-150,0,179.276
2.26,285.51,31.2583,140.185,47.6226,-122.238,0,179.282
2.28,284.582,31.2699,141.113,45,0,0,179.289
2.3,283.682,31.281,142.013,45,0,0,179.297
2.32,282.782,31.292,142.913,45,0,0,179.306
2.34,281.882,31.3028,143.813,45,0,0,179.317
2.36,280.982,31.3134,144.713,45,0,0,179.328
2.38,280.082,31.3239,145.613,45,0,0,179.34
2.4,279.182,31.3342,146.513,45,0,0,179.353
2.42,278.282,31.3443,147.413,45,0,0,179.366
2.44,277.382,31.3541,148.313,45,0,0,179.38
2.46,276.482,31.3637,149.213,45,0,0,179.395
2.48,275.582,31.3731,150.113,45,0,0,179.41
2.5,274.682,31.3823,151.013,45,0,0,179.426
2.52,273.782,31.3911,151.913,45,0,0,179.442
2.54,272.882,31.3998,152.813,45,0,0,179.459
2.56,271.982,31.4082,153.713,45,0,0,179.475
2.58,271.083,31.4163,154.613,45,0,0,179.492
2.6,270.183,31.4241,155.513,45,0,0,179.51
2.62,269.283,31.4317,156.413,45,0,0,179.527
2.64,268.383,31.439,157.313,45,0,0,179.544
2.66,267.483,31.446,158.213,45,0,0,179.561
2.68,266.583,31.4527,159.113,45,0,0,179.579
2.7,265.683,31.4592,160.013,45,0,0,179.596
2.72,264.783,31.4654,160.913,45,0,0,179.613
2.74,263.883,31.4714,161.813,45,0,0,179.63
2.76,262.983,31.477,162.713,45,0,0,179.647
2.78,262.083,31.4825,163.613,45,0,0,179.664
2.8,261.183,31.4876,164.513,45,0,0,179.68
2.82,260.283,31.4925,165.413,45,0,0,179.697
2.84,259.383,31.4971,166.313,45,0,0,179.713
2.86,258.483,31.5015,167.213,45,0,0,179.728
2.88,257.583,31.5057,168.113,45,0,0,179.744
2.9,256.683,31.5096,169.013,45,0,0,179.759
2.92,255.783,31.5132,169.913,45,0,0,179.774
2.94,254.883,31.5167,170.813,45,0,0,179.788
2.96,253.983,31.5199,171.713,45,0,0,179.802
2.98,253.083,31.5229,172.613,45,0,0,179.816
3,252.183,31.5257,173.513,45,0,0,179.829
3.02,251.283,31.5282,174.413,45,0,0,179.842
3.04,250.383,31.5306,175.313,45,0,0,179.855
3.06,249.483,31.5328,176.213,45,0,0,179.867
3.08,248.583,31.5348,177.113,45,0,0,179.879
3.1,247.683,31.5366,178.013,45,0,0,179.89
3.12,246.783,31.5383,178.913,45,0,0,179.9
3.14,245.883,31.5398,179.813,45,0,0,179.911
3.16,244.983,31.5411,180.713,45,0,0,179.92
3.18,244.083,31.5423,181.613,45,0,0,179.93
3.2,243.183,31.5433,182.513,45,0,0,179.939
3.22,242.283,31.5442,183.413,45,0,0,179.947
3.24,241.383,31.545,184.313,45,0,0,179.954
3.26,240.483,31.5456,185.213,45,0,0,179.962
3.28,239.583,31.5462,186.113,45,-12.7364,0,179.968
3.3,238.683,31.5466,187.013,44.967,-112.981,0,179.974
3.32,237.809,31.547,187.887,42.717,-145.766,0,179.98
3.34,236.989,31.5472,188.707,39.8138,-150,0,179.984
3.36,236.227,31.5474,189.469,36.8138,-150,0,179.988
3.38,235.518,31.5475,190.178,33.8138,-150,0,179.991
3.4,234.871,31.5476,190.825,30.8138,-150,0,179.993
3.42,234.299,31.5477,191.397,27.8138,-150,0,179.995
3.44,233.754,31.5477,191.942,24.8138,-150,0,179.997
3.46,233.322,31.5477,192.374,21.8138,-150,0,179.997
3.48,232.904,31.5477,192.792,18.8138,-150,0,179.998
3.5,232.609,31.5478,193.087,15.8138,-150,0,179.999
3.52,232.436,31.5478,193.26,12.8138,-150,0,179.999
3.54,232.263,31.5478,193.433,9.81382,-150,0,179.999
3.56,232.089,31.5478,193.607,6.81382,-150,0,179.999
3.58,231.916,31.5478,193.78,3.81382,-150,0,179.999
3.6,231.743,31.5478,193.953,0.813822,-150,0,180
