"time","x","y","position","velocity","acceleration","jerk","heading"
0,503.052,2.05288,0,0,0,0,179.818
0.02,502.91,2.05338,0.142048,7.1024,355.12,17756,179.814
0.04,502.768,2.05378,0.284834,7.1393,1.84469,-17663.8,179.811
0.06,502.625,2.05429,0.426882,7.1024,-1.84469,-184.469,179.807
0.08,502.483,2.05479,0.569668,7.13931,1.84549,184.509,179.804
0.1,502.341,2.05519,0.711716,7.10239,-1.84628,-184.589,179.8
0.12,502.198,2.05569,0.854502,7.13931,1.84628,184.628,179.797
0.14,502.056,2.0562,0.996551,7.1024,-1.84549,-184.589,179.793
0.16,501.725,2.05741,1.32774,16.5595,472.857,23735.1,179.777
0.18,501.378,2.05873,1.67419,17.3227,38.1552,-21735.1,179.76
0.2,501.033,2.06015,2.01965,17.2727,-2.49899,-2032.71,179.743
0.22,500.579,2.06229,2.47355,22.6953,271.132,13681.5,179.709
0.24,500.125,2.06464,2.9272,22.6823,-0.652027,-13589.2,179.676
0.26,499.604,2.06773,3.44861,26.0704,169.406,8502.92,179.621
0.28,499.06,2.07164,3.99259,27.1992,56.439,-5648.37,179.56
0.3,498.449,2.07662,4.60308,30.5244,166.259,5491.01,179.478
0.32,497.815,2.08275,5.23741,31.7164,59.6038,-5332.77,179.389
0.34,497.125,2.09068,5.92799,34.529,140.628,4051.2,179.28
0.36,496.388,2.10076,6.66461,36.8312,115.108,-1275.97,179.148
0.38,495.611,2.1132,7.44124,38.8313,100.008,-755.049,178.997
0.4,494.792,2.12867,8.26119,40.9976,108.316,415.426,178.822
0.42,493.914,2.14816,9.1388,43.8805,144.144,1791.41,178.618
0.44,492.993,2.17214,10.0603,46.0753,109.737,-1720.34,178.388
0.46,492.025,2.20154,11.0288,48.4265,117.561,391.165,178.124
0.48,491.008,2.2373,12.0464,50.8798,122.666,255.274,177.826
0.5,489.942,2.28063,13.1129,53.3232,122.171,-24.7625,177.495
0.52,488.827,2.33287,14.2296,55.836,125.639,173.394,177.126
0.54,487.661,2.39549,15.3975,58.3954,127.972,116.649,176.712
0.56,486.444,2.47015,16.6165,60.9483,127.645,-16.3393,176.254
0.58,485.177,2.55847,17.8861,63.4828,126.726,-45.9302,175.754
0.6,483.861,2.66245,19.207,66.0429,128.003,63.822,175.207
0.62,482.485,2.78495,20.5885,69.0732,151.515,1175.62,174.601
0.64,481.061,2.92755,22.0192,71.5352,123.102,-1420.64,173.95
0.66,479.589,3.09245,23.5005,74.0642,126.448,167.292,173.254
0.68,478.067,3.28232,25.034,76.6778,130.68,211.596,172.512
0.7,476.495,3.49993,26.6208,79.3411,133.164,124.201,171.726
0.72,474.883,3.74601,28.2516,81.5409,109.99,-1158.71,170.914
0.74,473.228,4.02318,29.93,83.9178,118.844,442.689,170.084
0.76,471.539,4.3311,31.6464,85.8179,95.0079,-1191.79,169.255
0.78,469.822,4.66974,33.3972,87.5403,86.1181,-444.49,168.454
0.8,468.085,5.03665,35.1719,88.7356,59.7673,-1317.54,167.703
0.82,466.337,5.42875,36.9639,89.5995,43.1943,-828.648,167.051
0.84,464.587,5.84006,38.7614,89.8749,13.7705,-1471.19,166.526
0.86,462.844,6.26426,40.5549,89.6744,-10.024,-1189.72,166.162
0.88,461.116,6.69333,42.3359,89.054,-31.0209,-1049.85,166.01
0.9,459.435,7.11209,44.0681,86.6061,-122.398,-4568.85,166.074
0.92,457.84,7.50454,45.711,82.1457,-223.019,-5031.08,166.344
0.94,456.329,7.86612,47.2645,77.6773,-223.418,-19.9137,166.8
0.96,454.893,8.19562,48.7377,73.6593,-200.901,1125.83,167.404
0.98,453.516,8.49482,50.1467,70.4498,-160.476,2021.24,168.112
1,452.197,8.76336,51.4924,67.284,-158.291,109.267,168.897
1.02,450.922,9.00458,52.7908,64.92,-118.196,2004.75,169.718
1.04,449.687,9.21925,54.0434,62.6323,-114.389,190.357,170.555
1.06,448.486,9.41024,55.2599,60.8244,-90.3911,1199.89,171.385
1.08,447.317,9.57891,56.441,59.052,-88.6241,88.346,172.188
1.1,446.175,9.72778,57.593,57.6013,-72.5303,804.692,172.957
1.12,445.06,9.85825,58.7156,56.1286,-73.6381,-55.3899,173.684
1.14,443.973,9.97194,59.8087,54.6567,-73.5949,2.15753,174.363
1.16,442.909,10.0709,60.8773,53.4314,-61.2652,616.488,174.992
1.18,441.871,10.1564,61.9188,52.0725,-67.9426,-333.873,175.571
1.2,440.859,10.2298,62.933,50.7116,-68.0474,-5.24118,176.105
1.22,439.876,10.2926,63.9183,49.2642,-72.3709,-216.172,176.59
1.24,438.92,10.3457,64.8758,47.8754,-69.4364,146.726,177.026
1.26,437.992,10.3906,65.8051,46.466,-70.4722,-51.7927,177.419
1.28,437.093,10.4281,66.7048,44.9832,-74.1421,-183.492,177.775
1.3,436.225,10.4594,67.5734,43.429,-77.7072,-178.257,178.096
1.32,435.384,10.4851,68.414,42.0301,-69.9469,388.012,178.378
1.34,434.578,10.5061,69.2206,40.3316,-84.9252,-748.912,178.625
1.36,433.806,10.5231,69.9925,38.5933,-86.9141,-99.4438,178.844
1.38,433.067,10.5366,70.7321,36.9803,-80.6498,313.212,179.037
1.4,432.357,10.5473,71.4422,35.5052,-73.7548,344.753,179.205
1.42,431.675,10.5559,72.124,34.0917,-70.6759,153.945,179.351
1.44,431.044,10.5622,72.7556,31.5809,-125.539,-2743.16,179.471
1.46,430.441,10.5672,73.3586,30.1504,-71.5226,2700.82,179.578
1.48,429.866,10.5708,73.933,28.7201,-71.515,0.381941,179.672
1.5,429.344,10.5735,74.4555,26.1233,-129.842,-2916.34,179.739
1.52,428.832,10.5755,74.9673,25.5886,-26.7339,5155.39,179.801
1.54,428.392,10.5768,75.4073,22.0003,-179.416,-7634.09,179.843
1.56,427.958,10.5777,75.8415,21.7134,-14.3474,8253.42,179.884
1.58,427.591,10.5783,76.2079,18.3204,-169.648,-7765.01,179.913
1.6,427.257,10.5787,76.5427,16.7359,-79.2281,4520.97,179.937
1.62,426.921,10.579,76.8786,16.7989,3.15424,4119.12,179.96
1.64,426.733,10.579,77.0665,9.39528,-370.183,-18666.9,179.968
1.66,426.592,10.5791,77.2075,7.04764,-117.382,12640,179.972
1.68,426.451,10.5792,77.3477,7.01073,-1.8455,5776.82,179.975
1.7,426.311,10.5792,77.4887,7.04764,1.84541,184.546,179.979
1.72,426.17,10.5792,77.6289,7.01073,-1.8455,-184.546,179.982
1.74,426.029,10.5793,77.7698,7.04764,1.84559,184.555,179.986
1.76,425.889,10.5793,77.91,7.01073,-1.84559,-184.559,179.989
