"time","x","y","position","velocity","acceleration","jerk","heading"
0,425.468,11.4319,0,0,0,0,180
0.02,425.294,11.4319,0.173524,8.67618,433.809,21690.4,179.998
0.04,425.121,11.4319,0.347047,8.67618,-1.5584e-09,-21690.4,179.996
0.06,424.947,11.4319,0.520571,8.67618,-3.25882e-09,-8.50209e-08,179.994
0.08,424.774,11.4319,0.694094,8.67618,-4.67528e-09,-7.08233e-08,179.992
0.1,424.599,11.432,0.868618,8.72618,2.50007,125.004,179.99
0.12,424.37,11.432,1.09793,11.4654,136.963,6723.17,179.985
0.14,423.949,11.4321,1.51933,21.0702,480.236,17163.6,179.972
0.16,423.526,11.4324,1.94173,21.1202,2.50024,-23886.8,179.959
0.18,422.995,11.4328,2.47254,26.5403,271.009,13425.4,179.933
0.2,422.443,11.4336,3.02487,27.6165,53.8101,-10859.9,179.905
0.22,421.785,11.4348,3.68265,32.8891,263.628,10490.9,179.86
0.24,421.085,11.4369,4.38306,35.0201,106.549,-7853.92,179.805
0.26,420.326,11.4399,5.1416,37.9273,145.361,1940.57,179.738
0.28,419.492,11.4443,5.97565,41.7025,188.759,2169.89,179.65
0.3,418.591,11.4505,6.87721,45.0778,168.768,-999.563,179.541
0.32,417.627,11.4592,7.84128,48.2036,156.288,-623.988,179.411
0.34,416.596,11.4712,8.87171,51.5216,165.898,480.525,179.253
0.36,415.499,11.4871,9.96878,54.8533,166.589,34.5297,179.066
0.38,414.333,11.5083,11.1356,58.3413,174.397,390.388,178.842
0.4,413.098,11.5358,12.3712,61.781,171.985,-120.599,178.581
0.42,411.784,11.5716,13.6848,65.6784,194.873,1144.4,178.275
0.44,410.402,11.6173,15.0684,69.1821,175.184,-984.434,177.92
0.46,408.95,11.6749,16.521,72.6282,172.305,-143.955,177.517
0.48,407.44,11.7462,18.0327,75.5856,147.872,-1221.63,177.058
0.5,405.912,11.8311,19.5632,76.5267,47.0514,-5041.04,176.56
0.52,404.378,11.9302,21.1006,76.8677,17.0496,-1500.09,176.035
0.54,402.836,12.0445,22.6468,77.3088,22.0591,250.474,175.476
0.56,401.292,12.1743,24.1957,77.4443,6.77353,-764.279,174.907
0.58,399.75,12.3196,25.7451,77.4697,1.27179,-275.087,174.337
0.6,398.213,12.4796,27.2906,77.2781,-9.58072,-542.626,173.783
0.62,396.687,12.6531,28.8265,76.792,-24.305,-736.212,173.264
0.64,395.178,12.838,30.3468,76.017,-38.7521,-722.359,172.802
0.66,393.689,13.0314,31.848,75.0605,-47.8254,-453.664,172.418
0.68,392.225,13.2308,33.3256,73.8779,-59.1274,-565.099,172.121
0.7,390.792,13.4321,34.7728,72.3628,-75.7566,-831.463,171.939
0.72,389.382,13.6334,36.197,71.2071,-57.783,898.684,171.847
0.74,388.006,13.8307,37.5872,69.5111,-84.8015,-1350.93,171.885
0.76,386.651,14.023,38.9554,68.4105,-55.0294,1488.61,172.006
0.78,385.321,14.2076,40.2984,67.148,-63.1245,-404.752,172.225
0.8,384.009,14.3839,41.6216,66.1643,-49.1876,696.843,172.516
0.82,382.712,14.5506,42.9299,65.4128,-37.5727,580.743,172.868
0.84,381.427,14.7068,44.2239,64.6979,-35.7469,91.2931,173.274
0.86,380.15,14.8528,45.5095,64.282,-20.7934,747.675,173.711
0.88,378.88,14.9876,46.7865,63.8521,-21.4986,-35.2621,174.18
0.9,377.614,15.1115,48.0589,63.6204,-11.5813,495.866,174.666
0.92,376.349,15.224,49.3288,63.4936,-6.34212,261.958,175.165
0.94,375.087,15.3251,50.595,63.3109,-9.13563,-139.675,175.674
0.96,373.823,15.415,51.8613,63.3115,0.0294562,458.254,176.187
0.98,372.562,15.4934,53.1256,63.2172,-4.71255,-237.1,176.704
1,371.3,15.5604,54.3894,63.1916,-1.27911,171.672,177.224
1.02,370.038,15.6158,55.6526,63.1582,-1.67047,-19.568,177.748
1.04,368.777,15.6596,56.9142,63.0807,-3.87502,-110.228,178.276
1.06,367.517,15.6916,58.1741,62.9957,-4.25002,-18.75,178.809
1.08,366.17,15.7163,59.5217,67.3807,219.25,11175,179.01
1.1,364.793,15.739,60.8984,68.8313,72.5319,-7335.9,179.1
1.12,363.415,15.7596,62.2768,68.9214,4.50293,-3401.45,179.183
1.14,362.035,15.7784,63.6568,68.9985,3.85557,-32.3679,179.26
1.16,360.655,15.7953,65.0373,69.0259,1.36901,-124.328,179.331
1.18,359.272,15.8106,66.4198,69.1273,5.06817,184.958,179.398
1.2,357.889,15.8244,67.8037,69.1919,3.23049,-91.884,179.46
1.22,356.504,15.8367,69.1888,69.2567,3.23949,0.449959,179.517
1.24,355.117,15.8477,70.575,69.3084,2.58849,-32.5499,179.57
1.26,353.73,15.8575,71.9622,69.3603,2.59549,0.349979,179.619
1.28,352.342,15.8663,73.3504,69.4123,2.59963,0.206689,179.664
1.3,350.953,15.8738,74.7397,69.4643,2.60042,0.0397315,179.705
1.32,349.563,15.8806,76.1298,69.5034,1.95321,-32.3606,179.743
1.34,348.172,15.8863,77.5209,69.5555,2.60674,32.6767,179.777
1.36,346.78,15.8914,78.9128,69.5947,1.95668,-32.5031,179.808
1.38,345.387,15.8957,80.3057,69.6469,2.61128,32.7298,179.835
1.4,343.993,15.8993,81.6992,69.673,1.30471,-65.3284,179.86
1.42,342.599,15.9025,83.0937,69.7253,2.61491,65.5101,179.881
1.44,341.204,15.9051,84.489,69.7645,1.96039,-32.7263,179.899
1.46,339.807,15.9074,85.8851,69.8037,1.96218,0.0897302,179.914
1.48,338.411,15.9093,87.2819,69.843,1.962,-0.00937328,179.926
1.5,337.013,15.911,88.6796,69.8822,1.96285,0.0428568,179.935
1.52,335.615,15.9125,90.0777,69.9084,1.30843,-32.7214,179.942
1.54,334.216,15.9139,91.4769,69.9608,2.61773,65.4655,179.945
1.56,332.816,15.9152,92.8769,70,1.96325,-32.724,179.945
1.58,331.415,15.9166,94.2777,70.0393,1.96374,0.0241071,179.942
1.6,330.014,15.918,95.679,70.0655,1.309,-32.737,179.937
1.62,328.611,15.9197,97.0811,70.1048,1.96433,32.7664,179.929
1.64,327.209,15.9215,98.484,70.144,1.96381,-0.0258932,179.918
1.66,325.805,15.9237,99.8877,70.1833,1.96492,0.0558038,179.904
1.68,324.401,15.9262,101.292,70.2096,1.31026,-32.7334,179.888
1.7,322.995,15.9292,102.697,70.262,2.62045,65.5097,179.868
1.72,321.59,15.9328,104.103,70.2751,0.6574,-98.1524,179.847
1.74,320.184,15.9368,105.509,70.3144,1.96684,65.4722,179.823
1.76,318.777,15.9414,106.916,70.3407,1.3136,-32.662,179.797
1.78,317.369,15.9467,108.323,70.3801,1.96968,32.8039,179.768
1.8,315.961,15.9528,109.731,70.3933,0.661561,-65.4061,179.738
1.82,314.553,15.9596,111.139,70.4066,0.663641,0.104016,179.707
1.84,313.145,15.9672,112.548,70.433,1.31928,32.7821,179.674
1.86,311.736,15.9756,113.957,70.4463,0.664436,-32.7423,179.64
1.88,310.327,15.985,115.366,70.4597,0.670212,0.288833,179.605
1.9,308.917,15.995,116.775,70.4599,0.0120622,-32.9075,179.57
1.92,307.509,16.0061,118.184,70.4472,-0.635749,-32.3906,179.536
1.94,306.099,16.0179,119.593,70.4606,0.668685,65.2217,179.501
1.96,304.691,16.0305,121.002,70.4348,-1.28947,-97.9078,179.468
1.98,303.282,16.044,122.411,70.4221,-0.635928,32.6771,179.436
2,301.874,16.0583,123.819,70.3963,-1.28928,-32.6678,179.406
2.02,300.467,16.0733,125.226,70.3705,-1.29081,-0.0763399,179.378
2.04,299.061,16.0889,126.632,70.2946,-3.79256,-125.087,179.352
2.06,297.656,16.105,128.038,70.2926,-0.10122,184.567,179.33
2.08,296.251,16.1217,129.443,70.2536,-1.9489,-92.3839,179.311
2.1,294.846,16.1388,130.847,70.2147,-1.94845,0.0223157,179.295
2.12,293.454,16.1562,132.24,69.6256,-29.4552,-1375.34,179.282
2.14,292.113,16.1731,133.581,67.0601,-128.275,-4941,179.274
2.16,290.83,16.1894,134.864,64.1575,-145.126,-842.518,179.27
2.18,289.604,16.205,136.09,61.2811,-143.82,65.2917,179.268
2.2,288.442,16.2199,137.252,58.1417,-156.973,-657.674,179.269
2.22,287.342,16.2339,138.352,54.9652,-158.825,-92.5841,179.272
2.24,286.302,16.2471,139.392,52.0018,-148.168,532.844,179.276
2.26,285.322,16.2595,140.372,49.0254,-148.822,-32.7246,179.282
2.28,284.396,16.2711,141.298,46.312,-135.669,657.676,179.289
2.3,283.498,16.2821,142.196,44.8987,-70.6646,3250.22,179.297
2.32,282.6,16.2931,143.094,44.8856,-0.657568,3500.35,179.306
2.34,281.703,16.3039,143.991,44.8593,-1.31505,-32.8742,179.317
2.36,280.806,16.3144,144.889,44.8591,-0.00594402,65.4554,179.328
2.38,279.909,16.3249,145.785,44.846,-0.657429,-32.5742,179.34
2.4,279.013,16.3352,146.682,44.8328,-0.660276,-0.142352,179.353
2.42,278.116,16.3452,147.579,44.8327,-0.0056663,32.7305,179.366
2.44,277.22,16.355,148.475,44.8194,-0.66279,-32.8562,179.38
2.46,276.324,16.3645,149.371,44.8062,-0.659887,0.145128,179.395
2.48,275.428,16.3739,150.267,44.8061,-0.00527749,32.7305,179.41
2.5,274.532,16.3831,151.163,44.7929,-0.659665,-32.7194,179.426
2.52,273.636,16.3918,152.059,44.7927,-0.00999947,32.4833,179.442
2.54,272.74,16.4005,152.955,44.7796,-0.656929,-32.3465,179.459
2.56,271.845,16.4088,153.851,44.7925,0.647374,65.2151,179.475
2.58,270.95,16.4169,154.745,44.7293,-3.16127,-190.432,179.492
2.6,270.055,16.4246,155.64,44.7661,1.83878,250.002,179.51
2.62,269.159,16.4322,156.536,44.7791,0.650221,-59.4277,179.527
2.64,268.264,16.4395,157.432,44.779,-0.00620813,-32.8214,179.544
2.66,267.368,16.4464,158.327,44.7788,-0.00595814,0.0124995,179.561
2.68,266.473,16.4531,159.222,44.7656,-0.660207,-32.7124,179.579
2.7,265.577,16.4596,160.118,44.7786,0.650832,65.5519,179.596
2.72,264.682,16.4657,161.014,44.7785,-0.00529154,-32.8062,179.613
2.74,263.786,16.4717,161.909,44.7785,-0.00338879,0.0951373,179.63
2.76,262.891,16.4773,162.805,44.7783,-0.00644429,-0.152775,179.647
2.78,261.995,16.4828,163.7,44.7783,-0.00154163,0.245133,179.664
2.8,261.099,16.4878,164.596,44.7913,0.64861,32.5076,179.68
2.82,260.204,16.4927,165.492,44.7781,-0.657276,-65.2943,179.697
2.84,259.308,16.4973,166.388,44.7911,0.65054,65.3908,179.713
2.86,258.412,16.5017,167.284,44.8042,0.651998,0.0729148,179.728
2.88,257.516,16.5058,168.179,44.7911,-0.656887,-65.4443,179.744
2.9,256.62,16.5097,169.076,44.8041,0.651123,65.4005,179.759
2.92,255.724,16.5133,169.972,44.804,-0.00312494,-32.7124,179.774
2.94,254.827,16.5168,170.868,44.8171,0.653512,32.8319,179.788
2.96,253.931,16.52,171.764,44.817,-0.00279167,-32.8152,179.802
2.98,253.035,16.523,172.661,44.817,-0.00172221,0.0534726,179.816
3,252.138,16.5258,173.557,44.83,0.652887,32.7305,179.829
3.02,251.242,16.5283,174.454,44.83,-0.00220829,-32.7548,179.842
3.04,250.345,16.5306,175.35,44.83,-0.000680588,0.076385,179.855
3.06,249.448,16.5328,176.247,44.8431,0.653221,32.6951,179.867
3.08,248.551,16.5348,177.144,44.843,-0.00116666,-32.7194,179.879
3.1,247.654,16.5366,178.041,44.8561,0.653443,32.7305,179.89
3.12,246.757,16.5383,178.939,44.8692,0.654012,0.0284726,179.9
3.14,245.86,16.5398,179.836,44.8561,-0.655387,-65.47,179.911
3.16,244.962,16.5411,180.733,44.8822,1.30822,98.1803,179.92
3.18,244.065,16.5423,181.631,44.8691,-0.654846,-98.1532,179.93
3.2,243.167,16.5433,182.528,44.8822,0.653887,65.4367,179.939
3.22,242.269,16.5442,183.426,44.8953,0.654235,0.0173609,179.947
3.24,241.371,16.545,184.325,44.9084,0.654262,0.00138912,179.954
3.26,240.473,16.5456,185.222,44.8953,-0.654887,-65.4575,179.962
3.28,239.575,16.5462,186.121,44.9215,1.309,98.1942,179.968
3.3,238.676,16.5466,187.019,44.9215,-0.000277776,-65.4637,179.974
3.32,237.804,16.547,187.892,43.6215,-65,-3249.99,179.98
3.34,236.985,16.5472,188.711,40.9476,-133.691,-3434.56,179.984
3.36,236.224,16.5474,189.472,38.0476,-145,-565.441,179.988
3.38,235.516,16.5475,190.18,35.4107,-131.846,657.722,179.991
3.4,234.869,16.5476,190.826,32.3238,-154.345,-1125,179.993
3.42,234.298,16.5477,191.398,28.5738,-187.5,-1657.72,179.995
3.44,233.753,16.5477,191.942,27.2238,-67.5,6000,179.997
3.46,233.321,16.5477,192.374,21.6,-281.191,-10684.5,179.997
3.48,232.903,16.5477,192.792,20.8869,-35.6545,12276.8,179.998
3.5,232.609,16.5478,193.087,14.7369,-307.5,-13592.3,179.999
3.52,232.436,16.5478,193.26,8.65,-304.346,157.721,179.999
3.54,232.263,16.5478,193.433,8.65,0,15217.3,179.999
3.56,232.089,16.5478,193.607,8.7,2.5,125,179.999
3.58,231.916,16.5478,193.78,8.65,-2.5,-250,179.999
3.6,231.743,16.5478,193.952,8.63691,-0.654498,92.2751,180
