"time","x","y","position","velocity","acceleration","jerk","heading"
0,263.8,38.1545,0,0,0,0,0
0.02,263.973,38.1545,0.173004,8.65019,432.51,21625.5,-1.72236e-05
0.04,264.146,38.1545,0.346008,8.65019,-5.57066e-08,-21625.5,-3.44471e-05
0.06,264.32,38.1545,0.520011,8.70019,2.5,125,-5.16707e-05
0.08,264.493,38.1545,0.693015,8.65019,-2.5,-250,-6.88942e-05
0.1,264.666,38.1545,0.866019,8.65019,5.55644e-08,125,-8.61178e-05
0.12,264.895,38.1545,1.09503,11.4504,140.011,7000.53,-0.00012242
0.14,265.313,38.1545,1.51305,20.9011,472.536,16626.3,-0.000223877
0.16,265.731,38.1545,1.93107,20.9011,1.42109e-12,-23626.8,-0.000325334
0.18,266.255,38.1545,2.45512,26.2021,265.05,13252.5,-0.000517539
0.2,266.8,38.1545,3.00016,27.2523,52.51,-10627,-0.000727672
0.22,267.446,38.1545,3.64624,32.3038,252.573,10003.2,-0.00106939
0.24,268.132,38.1545,4.33233,34.3046,100.042,-7626.57,-0.00148612
0.26,268.873,38.1544,5.07345,37.0558,137.56,1875.93,-0.00201132
0.28,269.686,38.1544,5.8856,40.6079,177.601,2002.01,-0.00271729
0.3,270.558,38.1544,6.7578,43.6097,150.091,-1375.49,-0.0035864
0.32,271.488,38.1543,7.68803,46.5116,145.098,-249.629,-0.00463198
0.34,272.477,38.1542,8.67731,49.4639,147.614,125.804,-0.00588295
0.36,273.527,38.1541,9.72664,52.4668,150.143,126.443,-0.00739118
0.38,274.635,38.1539,10.835,55.4201,147.664,-123.965,-0.00919381
0.4,275.803,38.1537,12.0025,58.3734,147.669,0.261367,-0.0113003
0.42,277.036,38.1535,13.2361,61.6777,165.214,877.252,-0.0137916
0.44,278.328,38.1531,14.5277,64.5821,145.218,-999.808,-0.0166744
0.46,279.676,38.1527,15.8765,67.4371,142.754,-123.22,-0.0200129
0.48,281.088,38.1521,17.2883,70.5931,157.798,752.242,-0.0238874
0.5,282.559,38.1515,18.7593,73.5491,147.801,-499.873,-0.0283028
0.52,284.089,38.1507,20.2894,76.5063,147.856,2.75695,-0.0333578
0.54,285.68,38.1496,21.8797,79.5146,150.416,127.973,-0.0391589
0.56,287.333,38.1484,23.5332,82.6737,157.957,377.094,-0.0457819
0.58,289.044,38.147,25.2439,85.5332,142.972,-749.272,-0.0532526
0.6,290.814,38.1452,27.0137,88.494,148.044,253.628,-0.0617005
0.62,292.647,38.1431,28.8469,91.6577,158.182,506.883,-0.0713733
0.64,294.54,38.1405,30.7403,94.6713,150.681,-375.06,-0.0822675
0.66,296.493,38.1375,32.693,97.6366,148.263,-120.908,-0.0945305
0.68,298.506,38.134,34.7061,100.654,150.85,129.358,-0.108318
0.7,300.579,38.1298,36.7786,103.622,148.442,-120.406,-0.123793
0.72,302.712,38.1249,38.9124,106.693,153.545,255.18,-0.141141
0.74,304.906,38.119,41.1057,109.666,148.634,-245.576,-0.160518
0.76,307.162,38.1123,43.3616,112.79,156.226,379.592,-0.182088
0.78,309.477,38.1045,45.6769,115.766,148.786,-371.965,-0.205956
0.8,311.852,38.0954,48.0517,118.74,148.714,-3.64409,-0.231986
0.82,314.289,38.085,50.4891,121.868,156.383,383.486,-0.260481
0.84,316.785,38.0729,52.9849,124.792,146.176,-510.387,-0.291059
0.86,319.343,38.0592,55.5431,127.913,156.043,493.388,-0.323477
0.88,321.959,38.0438,58.1597,130.828,145.754,-514.448,-0.357212
0.9,324.638,38.0262,60.8384,133.936,155.405,482.544,-0.391622
0.92,327.376,38.0066,63.576,136.882,147.317,-404.431,-0.425647
0.94,330.172,37.9851,66.3724,139.817,146.726,-29.5379,-0.458221
0.96,333.029,37.9614,69.2291,142.837,151.013,214.375,-0.488056
0.98,335.943,37.9359,72.144,145.744,145.37,-282.143,-0.514
1,338.918,37.9086,75.1188,148.738,149.692,216.101,-0.53484
1.02,341.921,37.8802,78.1221,150.167,71.4548,-3911.89,-0.549263
1.04,344.923,37.8512,81.1241,150.098,-3.48381,-3746.93,-0.557398
1.06,347.923,37.8219,84.1246,150.026,-3.56487,-4.05266,-0.559112
1.08,350.922,37.7927,87.1237,149.958,-3.43217,6.63472,-0.554661
1.1,353.92,37.7639,90.1218,149.901,-2.82466,30.3754,-0.54515
1.12,356.916,37.7358,93.1177,149.795,-5.3169,-124.612,-0.530601
1.14,359.912,37.7085,96.1136,149.797,0.13473,272.581,-0.511838
1.16,362.907,37.6823,99.1087,149.757,-2.04564,-109.019,-0.489442
1.18,365.901,37.6574,102.103,149.721,-1.76967,13.7985,-0.463911
1.2,368.895,37.6339,105.097,149.69,-1.55297,10.8352,-0.435643
1.22,371.888,37.6119,108.09,149.663,-1.37847,8.72518,-0.404945
1.24,374.881,37.5916,111.083,149.636,-1.32915,2.46599,-0.371915
1.26,377.873,37.5731,114.075,149.612,-1.1925,6.83253,-0.336791
1.28,380.865,37.5565,117.067,149.588,-1.22654,-1.7023,-0.299515
1.3,383.856,37.5419,120.058,149.563,-1.21809,0.422413,-0.260094
1.32,386.847,37.5294,123.049,149.537,-1.33396,-5.79348,-0.21832
1.34,389.837,37.5191,126.039,149.509,-1.38834,-2.71904,-0.174088
1.36,392.826,37.5113,129.029,149.475,-1.67326,-14.246,-0.126881
1.38,395.815,37.5059,132.017,149.439,-1.80894,-6.78404,-0.0764473
1.4,398.803,37.5033,135.005,149.396,-2.1489,-16.9977,-0.0221677
1.42,401.792,37.5036,137.994,149.429,1.6594,190.415,0.0291241
1.44,404.787,37.5059,140.989,149.756,16.3223,733.145,0.0510802
1.46,407.788,37.5085,143.99,150.066,15.5102,-40.6031,0.0451575
1.48,410.794,37.5103,146.996,150.295,11.4549,-202.77,0.0186419
1.5,413.803,37.5103,150.005,150.455,7.98857,-173.314,-0.0222357
1.52,416.814,37.5078,153.016,150.549,4.7155,-163.654,-0.0715848
1.54,419.825,37.5027,156.028,150.57,1.0475,-183.4,-0.122802
1.56,422.836,37.4949,159.038,150.514,-2.78845,-191.797,-0.168982
1.58,425.843,37.4851,162.045,150.375,-6.9532,-208.238,-0.202636
1.6,428.846,37.4741,165.048,150.141,-11.7069,-237.685,-0.215228
1.62,431.842,37.4631,168.044,149.788,-17.641,-296.707,-0.19611
1.64,434.828,37.4543,171.03,149.319,-23.4576,-290.826,-0.134858
1.66,437.802,37.45,174.005,148.705,-30.7137,-362.805,-0.0184432
1.68,440.761,37.4534,176.963,147.925,-38.9938,-414.009,0.168059
1.7,443.699,37.4687,179.901,146.909,-50.7819,-589.404,0.441522
1.72,446.613,37.5003,182.816,145.736,-58.6682,-394.315,0.825545
1.74,449.503,37.5536,185.706,144.523,-60.6525,-99.2133,1.3201
1.76,452.359,37.6346,188.563,142.837,-84.3001,-1182.38,1.96482
1.78,455.18,37.7498,191.386,141.166,-83.5285,38.5811,2.75652
1.8,457.963,37.9062,194.174,139.38,-89.3376,-290.454,3.70981
1.82,460.693,38.109,196.912,136.898,-124.103,-1738.25,4.82997
1.84,463.334,38.3601,199.564,132.61,-214.375,-4513.63,6.07461
1.86,465.886,38.6615,202.135,128.516,-204.688,484.366,7.42045
1.88,468.355,39.0137,204.628,124.674,-192.11,628.904,8.8391
1.9,470.749,39.4167,207.056,121.384,-164.487,1381.15,10.2883
1.92,473.074,39.8691,209.424,118.433,-147.584,845.126,11.7348
1.94,475.335,40.3679,211.74,115.796,-131.84,787.22,13.145
1.96,477.539,40.9104,214.009,113.455,-117.04,740.002,14.4949
1.98,479.688,41.4919,216.236,111.349,-105.307,586.626,15.7671
2,481.788,42.1084,218.424,109.39,-97.9297,368.875,16.9466
2.02,483.837,42.7546,220.573,107.465,-96.2464,84.1679,18.0262
2.04,485.84,43.4256,222.685,105.581,-94.2417,100.235,19.0113
2.06,487.793,44.1161,224.757,103.589,-99.569,-266.366,19.9009
2.08,489.698,44.8212,226.788,101.542,-102.338,-138.435,20.7033
2.1,491.555,45.5367,228.778,99.5224,-101.005,66.6272,21.419
2.12,493.364,46.2584,230.726,97.3795,-107.141,-306.8,22.0578
2.14,495.124,46.9821,232.629,95.1463,-111.664,-226.143,22.6267
2.16,496.835,47.7045,234.486,92.8844,-113.093,-71.4534,23.1315
2.18,498.497,48.4224,236.297,90.509,-118.768,-283.769,23.5782
2.2,500.109,49.1328,238.059,88.0986,-120.521,-87.6127,23.9741
2.22,501.672,49.8336,239.771,85.6313,-123.367,-142.32,24.3252
2.24,503.184,50.5223,241.433,83.0799,-127.57,-210.123,24.6355
2.26,504.644,51.1959,243.041,80.3954,-134.225,-332.775,24.9077
2.28,506.055,51.8548,244.598,77.8478,-127.381,342.196,25.1475
2.3,507.415,52.4961,246.101,75.1659,-134.094,-335.633,25.3577
2.32,508.722,53.1187,247.549,72.4244,-137.074,-148.997,25.5426
2.34,509.978,53.7212,248.942,69.6336,-139.54,-123.334,25.7042
2.36,511.187,54.3046,250.284,67.1109,-126.136,670.229,25.8449
2.38,512.338,54.8637,251.564,63.9791,-156.592,-1522.78,25.965
2.4,513.44,55.4015,252.79,61.3115,-133.378,1160.66,26.0699
2.42,514.491,55.917,253.961,58.5223,-139.461,-304.116,26.1609
2.44,515.491,56.4091,255.076,55.7517,-138.53,46.5157,26.2382
2.46,516.438,56.877,256.132,52.8178,-146.694,-408.204,26.303
2.48,517.333,57.3197,257.131,49.9315,-144.317,118.885,26.3575
2.5,518.173,57.7366,258.068,46.8863,-152.258,-397.092,26.4029
2.52,518.96,58.1274,258.947,43.9141,-148.611,182.355,26.4403
2.54,519.693,58.492,259.765,40.9307,-149.167,-27.7954,26.4707
2.56,520.374,58.8315,260.526,38.0559,-143.743,271.212,26.4948
2.58,521.01,59.1487,261.237,35.5411,-125.736,900.35,26.5142
2.6,521.585,59.4359,261.88,32.142,-169.956,-2210.97,26.5286
2.62,522.101,59.6934,262.457,28.8269,-165.758,209.879,26.5395
2.64,522.587,59.9361,263,27.171,-82.7955,4148.12,26.5485
2.66,522.979,60.132,263.438,21.9093,-263.084,-9014.42,26.5537
2.68,523.352,60.3185,263.855,20.8572,-52.6054,10523.9,26.5582
2.7,523.629,60.457,264.164,15.4603,-269.842,-10861.8,26.561
2.72,523.784,60.5344,264.338,8.65474,-340.28,-3521.89,26.5617
2.74,523.939,60.6118,264.511,8.65697,0.111746,17019.6,26.5624
2.76,524.093,60.6891,264.684,8.65474,-0.111746,-11.1746,26.5631
2.78,524.248,60.7666,264.857,8.65697,0.111746,11.1746,26.5638
2.8,524.403,60.8439,265.03,8.65474,-0.111746,-11.1746,26.5645
