"time","x","y","position","velocity","acceleration","jerk","heading"
0,503.1,2.1,0,0,0,0,180
0.02,502.854,2.1,0.245524,12.2762,613.809,30690.4,179.998
0.04,502.609,2.1,0.491047,12.2762,-1.55982e-09,-30690.4,179.996
0.06,502.364,2.1,0.736309,12.2631,-0.654498,-32.7249,179.995
0.08,502.118,2.1,0.981833,12.2762,0.654498,65.4498,179.993
0.1,501.553,2.1001,1.54745,28.2809,800.236,39979.1,179.983
0.12,500.917,2.1003,2.18285,31.7702,174.464,-31288.6,179.97
0.14,500.142,2.10081,2.95835,38.7749,350.236,8788.64,179.949
0.16,499.229,2.10192,3.87125,45.6451,343.51,-336.328,179.915
0.18,498.199,2.10384,4.90056,51.4653,291.011,-2624.93,179.868
0.2,497.048,2.10709,6.05211,57.5773,305.597,729.279,179.801
0.22,495.757,2.11249,7.34294,64.5417,348.224,2131.38,179.71
0.24,494.347,2.12097,8.75307,70.5066,298.243,-2499.09,179.595
0.26,492.813,2.13359,10.2868,76.6875,309.044,540.09,179.451
0.28,491.144,2.15222,11.9558,83.4505,338.152,1455.36,179.268
0.3,489.346,2.17858,13.7544,89.9284,323.894,-712.862,179.045
0.32,487.417,2.21502,15.6839,96.4747,327.314,170.96,178.777
0.34,485.367,2.26434,17.7342,102.517,302.128,-1259.29,178.457
0.36,483.274,2.32718,19.8286,104.72,110.163,-9598.26,178.096
0.38,481.171,2.40421,21.9322,105.177,22.8168,-4367.29,177.698
0.4,479.059,2.49702,24.0463,105.704,26.3402,176.168,177.262
0.42,476.938,2.60703,26.1705,106.213,25.4515,-44.4313,176.79
0.44,474.809,2.73579,28.3034,106.645,21.6211,-191.52,176.281
0.46,472.672,2.8847,30.4457,107.113,23.3832,88.1033,175.737
0.48,470.526,3.0555,32.5983,107.634,26.0429,132.985,175.155
0.5,468.374,3.24936,34.7594,108.053,20.9899,-252.651,174.54
0.52,466.215,3.46785,36.9292,108.491,21.8566,43.3365,173.892
0.54,464.052,3.71218,39.1063,108.857,18.2986,-177.902,173.214
0.56,461.883,3.98362,41.2914,109.253,19.8291,76.5284,172.509
0.58,459.713,4.2829,43.482,109.53,13.8465,-299.131,171.78
0.6,457.543,4.61089,45.6768,109.738,10.3831,-173.171,171.034
0.62,455.374,4.96776,47.8755,109.935,9.88412,-24.9486,170.277
0.64,453.209,5.35347,50.0744,109.949,0.660845,-461.164,169.517
0.66,451.051,5.76756,52.2717,109.862,-4.34694,-250.389,168.763
0.68,448.902,6.20898,54.4651,109.67,-9.60623,-262.965,168.024
0.7,446.766,6.67625,56.6519,109.343,-16.3294,-336.161,167.311
0.72,444.646,7.16702,58.8279,108.799,-27.2012,-543.587,166.637
0.74,442.544,7.6789,60.9913,108.171,-31.4059,-210.235,166.012
0.76,440.463,8.20834,63.1387,107.369,-40.1055,-434.98,165.452
0.78,438.407,8.75199,65.2656,106.346,-51.1238,-550.914,164.965
0.8,436.375,9.30605,67.3721,105.324,-51.122,0.0903905,164.56
0.82,434.37,9.86638,69.4538,104.088,-61.8032,-534.06,164.247
0.84,432.391,10.429,71.5104,102.829,-62.9151,-55.5965,164.032
0.86,430.441,10.9901,73.5405,101.501,-66.4072,-174.606,163.917
0.88,428.516,11.5461,75.5439,100.173,-66.398,0.462329,163.902
0.9,426.615,12.0936,77.5218,98.8957,-63.8793,125.934,163.987
0.92,424.739,12.6294,79.4733,97.5714,-66.2172,-116.896,164.172
0.94,422.882,13.1514,81.4019,96.4326,-56.9361,464.053,164.447
0.96,421.044,13.6573,83.3084,95.3253,-55.3661,78.501,164.803
0.98,419.221,14.1457,85.196,94.3767,-47.4302,396.796,165.233
1,417.41,14.6152,87.0669,93.5454,-41.5649,293.263,165.726
1.02,415.609,15.0647,88.9232,92.8154,-36.4987,253.312,166.273
1.04,413.814,15.4936,90.7682,92.2522,-28.1635,416.761,166.864
1.06,412.023,15.9014,92.6048,91.8285,-21.1851,348.917,167.488
1.08,410.234,16.288,94.435,91.5102,-15.911,263.707,168.137
1.1,408.445,16.6529,96.261,91.3001,-10.5056,270.272,168.803
1.12,406.655,16.9964,98.0841,91.1552,-7.24395,163.081,169.478
1.14,404.861,17.3186,99.9068,91.1369,-0.918258,316.285,170.157
1.16,403.063,17.6196,101.729,91.1239,-0.64777,13.5244,170.833
1.18,401.26,17.8998,103.554,91.2289,5.25053,294.915,171.502
1.2,399.451,18.1594,105.382,91.4138,9.24535,199.741,172.159
1.22,397.635,18.399,107.214,91.5791,8.26509,-49.0131,172.803
1.24,395.812,18.619,109.05,91.8133,11.7065,172.073,173.43
1.26,393.982,18.8198,110.891,92.0383,11.2499,-22.8342,174.038
1.28,392.145,19.002,112.737,92.2915,12.6595,70.4798,174.626
1.3,390.301,19.1663,114.588,92.5722,14.0368,68.8679,175.193
1.32,388.449,19.313,116.446,92.8785,15.3145,63.8862,175.738
1.34,386.591,19.4428,118.309,93.1472,13.4347,-93.9927,176.261
1.36,384.725,19.5565,120.177,93.4401,14.644,60.4666,176.761
1.38,382.853,19.6544,122.052,93.7296,14.478,-8.29958,177.239
1.4,380.974,19.7374,123.933,94.0416,15.5982,56.0065,177.694
1.42,379.088,19.8061,125.82,94.3614,15.9908,19.6299,178.126
1.44,377.197,19.8612,127.713,94.6255,13.2035,-139.361,178.536
1.46,375.298,19.9032,129.612,94.9848,17.9656,238.103,178.921
1.48,373.394,19.9329,131.516,95.1974,10.6322,-366.671,179.285
1.5,371.483,19.951,133.428,95.567,18.4793,392.358,179.624
1.52,369.566,19.9581,135.345,95.8512,14.2075,-213.591,179.941
1.54,367.647,19.9548,137.263,95.903,2.59098,-580.827,-179.746
1.56,365.721,19.9414,139.189,96.3111,20.4047,890.684,-179.464
1.58,363.786,19.9189,141.125,96.7866,23.7758,168.556,-179.218
1.6,361.842,19.8886,143.069,97.1978,20.5614,-160.719,-179.003
1.62,359.89,19.8514,145.021,97.6227,21.2427,34.0672,-178.82
1.64,357.931,19.8083,146.98,97.9584,16.7837,-222.951,-178.666
1.66,355.965,19.7601,148.946,98.3176,17.9621,58.9209,-178.539
1.68,353.992,19.708,150.921,98.7128,19.7579,89.788,-178.438
1.7,352.013,19.6525,152.901,99.0075,14.7355,-251.122,-178.363
1.72,350.027,19.5947,154.887,99.3248,15.865,56.4773,-178.312
1.74,348.035,19.5354,156.88,99.6408,15.8036,-3.07002,-178.285
1.76,346.037,19.4754,158.879,99.9557,15.7453,-2.91455,-178.282
1.78,344.032,19.4157,160.885,100.269,15.6781,-3.36236,-178.303
1.8,342.02,19.3567,162.897,100.632,18.133,122.747,-178.348
1.82,340.004,19.2996,164.915,100.88,12.4105,-286.124,-178.416
1.84,337.981,19.2453,166.939,101.19,15.508,154.875,-178.508
1.86,335.951,19.1943,168.968,101.487,14.8261,-34.0938,-178.623
1.88,333.915,19.1477,171.005,101.846,17.9432,155.855,-178.762
1.9,331.873,19.1063,173.048,102.115,13.4637,-223.976,-178.922
1.92,329.827,19.0708,175.094,102.334,10.9629,-125.042,-179.103
1.94,327.774,19.0422,177.147,102.654,15.9824,250.976,-179.305
1.96,325.716,19.0211,179.205,102.898,12.2116,-188.539,-179.526
1.98,323.654,19.0082,181.268,103.117,10.9615,-62.5079,-179.764
2,321.588,19.0042,183.334,103.299,9.07481,-94.3324,179.984
2.02,319.519,19.0094,185.402,103.43,6.55109,-126.186,179.722
2.04,317.449,19.0243,187.473,103.524,4.69545,-92.7818,179.453
2.06,315.378,19.0489,189.544,103.541,0.878911,-190.827,179.183
2.08,313.309,19.0833,191.613,103.446,-4.7828,-283.086,178.917
2.1,311.242,19.1271,193.68,103.387,-2.95619,91.3304,178.66
2.12,309.18,19.1798,195.743,103.15,-11.8084,-442.609,178.418
2.14,307.123,19.2407,197.801,102.887,-13.186,-68.8804,178.197
2.16,305.073,19.3089,199.852,102.558,-16.4434,-162.872,178.002
2.18,303.031,19.3833,201.896,102.189,-18.432,-99.4287,177.836
2.2,300.997,19.4628,203.931,101.743,-22.2878,-192.789,177.701
2.22,298.973,19.5459,205.957,101.317,-21.318,48.491,177.603
2.24,296.958,19.6315,207.974,100.841,-23.804,-124.305,177.538
2.26,294.952,19.7186,209.982,100.387,-22.7144,54.4835,177.508
2.28,292.954,19.8057,211.981,99.9818,-20.246,123.419,177.509
2.3,290.964,19.8919,213.974,99.6142,-18.3802,93.2879,177.538
2.32,288.985,19.9762,215.954,99.0073,-30.3424,-598.108,177.594
2.34,287.086,20.0549,217.855,95.0506,-197.839,-8374.84,177.669
2.36,285.307,20.126,219.635,88.9962,-302.718,-5243.95,177.755
2.38,283.655,20.1895,221.288,82.6576,-316.931,-710.673,177.847
2.4,282.122,20.246,222.823,76.7486,-295.45,1074.1,177.939
2.42,280.707,20.2958,224.239,70.7902,-297.919,-123.48,178.031
2.44,279.407,20.3395,225.539,65.0355,-287.735,509.209,178.119
2.46,278.235,20.3772,226.712,58.6206,-320.744,-1650.47,178.2
2.48,277.179,20.4097,227.768,52.7937,-291.344,1470.02,178.275
2.5,276.24,20.4374,228.707,46.9807,-290.654,34.5137,178.343
2.52,275.412,20.4609,229.536,41.4448,-276.795,692.929,178.402
2.54,274.709,20.4803,230.239,35.146,-314.94,-1907.22,178.453
2.56,274.158,20.4949,230.791,27.5863,-377.984,-3152.23,178.493
2.58,273.651,20.508,231.297,25.3244,-113.095,13244.4,178.53
2.6,273.239,20.5185,231.71,20.6141,-235.513,-6120.87,178.56
2.62,272.848,20.5282,232.101,19.5765,-51.8792,9181.68,178.589
2.64,272.455,20.5379,232.494,19.6395,3.14758,2751.34,178.617
2.66,272.062,20.5473,232.887,19.6392,-0.0121215,-157.985,178.645
2.68,271.67,20.5564,233.279,19.6258,-0.672212,-33.0045,178.674
2.7,271.277,20.5654,233.672,19.6388,0.648719,66.0465,178.702
2.72,270.885,20.5742,234.065,19.6384,-0.0169642,-33.2841,178.73
2.74,270.492,20.5828,234.458,19.6383,-0.00553009,0.571708,178.758
2.76,270.099,20.5913,234.85,19.6381,-0.0108724,-0.267117,178.786
2.78,269.707,20.5994,235.243,19.6378,-0.0158399,-0.248372,178.814
2.8,269.314,20.6075,235.636,19.6508,0.649343,33.2591,178.841
2.82,268.922,20.6153,236.028,19.5875,-3.16412,-190.673,178.869
2.84,268.529,20.623,236.421,19.6504,3.14412,315.412,178.896
2.86,268.136,20.6304,236.814,19.6502,-0.00962321,-157.687,178.923
2.88,267.743,20.6378,237.207,19.6501,-0.00471761,0.24528,178.95
2.9,267.35,20.6449,237.6,19.6498,-0.0137792,-0.453078,178.977
2.92,266.957,20.6518,237.993,19.6627,0.645625,32.9702,179.003
2.94,266.564,20.6585,238.386,19.6495,-0.658842,-65.2233,179.03
2.96,266.171,20.6651,238.779,19.6625,0.646,65.2421,179.056
2.98,265.778,20.6715,239.173,19.6623,-0.00824889,-32.7124,179.082
3,265.384,20.6777,239.566,19.6752,0.6465,32.7374,179.107
3.02,264.991,20.6838,239.959,19.6621,-0.658404,-65.2452,179.133
3.04,264.598,20.6896,240.353,19.6749,0.643156,65.078,179.158
3.06,264.204,20.6953,240.746,19.6749,-0.00365608,-32.3406,179.183
3.08,263.81,20.7008,241.14,19.6878,0.647374,32.5515,179.207
3.1,263.417,20.7062,241.534,19.6746,-0.657967,-65.267,179.232
3.12,263.023,20.7114,241.927,19.6875,0.644468,65.1218,179.256
3.14,262.63,20.7165,242.321,19.6875,9.37435e-08,-32.2234,179.28
3.16,262.236,20.7213,242.715,19.7004,0.64503,32.2515,179.303
3.18,261.842,20.726,243.109,19.6873,-0.65753,-65.128,179.327
3.2,261.448,20.7306,243.503,19.7003,0.648624,65.3077,179.35
3.22,261.055,20.7349,243.896,19.6632,-1.85097,-124.98,179.372
3.24,260.661,20.7392,244.29,19.7001,1.84535,184.816,179.395
3.26,260.266,20.7433,244.684,19.7131,0.64653,-59.941,179.417
3.28,259.872,20.7472,245.079,19.713,-0.00253122,-32.4531,179.439
3.3,259.478,20.751,245.473,19.726,0.649624,32.6077,179.46
3.32,259.083,20.7546,245.868,19.726,-0.00234373,-32.5984,179.481
3.34,258.689,20.7582,246.262,19.7259,-0.00228105,0.00313403,179.502
3.36,258.294,20.7615,246.657,19.7389,0.650124,32.6202,179.522
3.38,257.899,20.7647,247.052,19.7388,-0.00412467,-32.7124,179.542
3.4,257.504,20.7678,247.446,19.7388,2.88436e-08,0.206235,179.562
3.42,257.109,20.7708,247.842,19.7519,0.650623,32.5312,179.581
3.44,256.714,20.7736,248.237,19.7518,-0.00362477,-32.7124,179.6
3.46,256.319,20.7762,248.632,19.7517,-0.00171882,0.0952976,179.619
3.48,255.924,20.7788,249.027,19.7648,0.652842,32.7281,179.637
3.5,255.529,20.7813,249.422,19.7648,-0.00159369,-32.7218,179.655
3.52,255.133,20.7835,249.818,19.7778,0.651499,32.6546,179.672
3.54,254.738,20.7858,250.213,19.7647,-0.654498,-65.2998,179.69
3.56,254.342,20.7879,250.609,19.7908,1.30625,98.0373,179.706
3.58,253.946,20.7899,251.004,19.7777,-0.65578,-98.1013,179.723
3.6,253.55,20.7917,251.4,19.8039,1.30662,98.1201,179.738
3.62,253.155,20.7934,251.796,19.7908,-0.654499,-98.056,179.754
3.64,252.759,20.7951,252.192,19.8038,0.653405,65.3952,179.769
3.66,252.362,20.7966,252.588,19.8038,-0.00199991,-32.7702,179.784
3.68,251.966,20.7981,252.985,19.8169,0.654498,32.8249,179.798
3.7,251.57,20.7994,253.381,19.8168,-0.00174993,-32.8124,179.812
3.72,251.173,20.8007,253.778,19.8299,0.654498,32.8124,179.825
3.74,250.777,20.8019,254.174,19.8299,-0.00078126,-32.764,179.838
3.76,250.38,20.8029,254.571,19.8299,-0.00137481,-0.0296777,179.851
3.78,249.983,20.8038,254.968,19.843,0.654498,32.7937,179.863
3.8,249.586,20.8048,255.365,19.8561,0.654499,1.74591e-05,179.874
3.82,249.189,20.8056,255.762,19.8561,-0.00112511,-32.7812,179.885
3.84,248.792,20.8063,256.159,19.856,-0.000468694,0.0328209,179.896
3.86,248.394,20.807,256.557,19.8691,0.654498,32.7484,179.906
3.88,247.997,20.8076,256.954,19.8691,-0.000406242,-32.7452,179.916
3.9,247.599,20.8082,257.352,19.8822,0.654498,32.7452,179.925
3.92,247.202,20.8087,257.749,19.8822,-0.000343786,-32.7421,179.934
3.94,246.804,20.8091,258.147,19.8953,0.654217,32.7281,179.942
3.96,246.406,20.8095,258.545,19.8953,-9.13811e-09,-32.7109,179.95
3.98,246.008,20.8098,258.943,19.9084,0.65428,32.714,179.957
4,245.61,20.8101,259.341,19.9084,-3.44436e-10,-32.714,179.964
4.02,245.211,20.8103,259.74,19.9215,0.654342,32.7171,179.97
4.04,244.813,20.8105,260.138,19.9215,-9.76019e-09,-32.7171,179.976
4.06,244.414,20.8106,260.537,19.9476,1.3089,65.4452,179.98
4.08,244.015,20.8107,260.936,19.9346,-0.654498,-98.1701,179.985
4.1,243.616,20.8108,261.335,19.9476,0.654498,65.4498,179.989
4.12,243.217,20.8109,261.734,19.9607,0.654498,5.35845e-07,179.992
4.14,242.883,20.8109,262.067,16.6738,-164.346,-8250,179.994
4.16,242.684,20.8109,262.267,9.98691,-334.346,-8500,179.995
4.18,242.484,20.811,262.467,9.98691,6.25553e-05,16717.3,179.996
4.2,242.284,20.811,262.667,9.98691,-6.2557e-05,-0.00625561,179.997
4.22,242.084,20.811,262.866,9.98691,-6.18083e-10,0.00312782,179.998
