"time","x","y","position","velocity","acceleration","jerk","heading"
0,522.219,73.9923,0,0,0,0,-153.4
0.02,522.192,73.9788,0.0301869,1.50935,75.4673,3773.36,-153.4
0.04,522.111,73.9385,0.120658,4.52357,150.711,3762.21,-153.4
0.06,521.977,73.8714,0.27052,7.49307,148.475,-111.844,-153.4
0.08,521.789,73.7772,0.480123,10.4802,149.355,44.0066,-153.399
0.1,521.547,73.6563,0.750642,13.526,152.291,146.81,-153.399
0.12,521.252,73.5086,1.08055,16.4955,148.475,-190.794,-153.399
0.14,520.903,73.3338,1.4711,19.5273,151.589,155.704,-153.398
0.16,520.501,73.1322,1.92103,22.4968,148.475,-155.685,-153.397
0.18,520.044,72.9036,2.43151,25.5241,151.365,144.487,-153.395
0.2,519.534,72.6481,3.00237,28.5428,150.935,-21.5265,-153.393
0.22,518.97,72.3655,3.63292,31.5276,149.242,-84.6367,-153.39
0.24,518.352,72.056,4.32406,34.5571,151.477,111.76,-153.386
0.26,517.681,71.7194,5.0749,37.542,149.242,-111.75,-153.381
0.28,516.956,71.3558,5.88633,40.5715,151.477,111.746,-153.375
0.3,516.176,70.9651,6.75818,43.5924,151.047,-21.5204,-153.369
0.32,515.343,70.5472,7.68999,46.5904,149.897,-57.4934,-153.361
0.34,514.456,70.1023,8.68243,49.6222,151.589,84.6143,-153.352
0.36,513.515,69.6302,9.73529,52.6431,151.047,-27.1202,-153.343
0.38,512.521,69.1308,10.8482,55.6455,150.121,-46.2701,-153.332
0.4,511.473,68.6042,12.0207,58.624,148.925,-59.8147,-153.321
0.42,510.371,68.0505,13.2538,61.6558,151.589,133.195,-153.309
0.44,509.216,67.4696,14.5472,64.6681,150.617,-48.6093,-153.298
0.46,508.007,66.8614,15.9004,67.6597,149.58,-51.8349,-153.286
0.48,506.746,66.2263,17.3126,70.6098,147.504,-103.775,-153.276
0.5,505.43,65.5641,18.785,73.6221,150.617,155.621,-153.267
0.52,504.063,64.875,20.3164,76.5722,147.505,-155.606,-153.26
0.54,502.642,64.1591,21.9073,79.543,148.541,51.8098,-153.257
0.56,501.169,63.4168,23.5572,82.4963,147.661,-43.9731,-153.259
0.58,499.643,62.6485,25.265,85.3873,144.549,-155.607,-153.267
0.6,498.066,61.8544,27.0309,88.2945,145.361,40.5668,-153.283
0.62,496.438,61.0353,28.8537,91.1426,142.406,-147.739,-153.311
0.64,494.758,60.1916,30.7333,93.9817,141.958,-22.4157,-153.351
0.66,493.028,59.3245,32.6682,96.742,138.014,-197.179,-153.408
0.68,491.249,58.435,34.6578,99.4813,136.964,-52.5022,-153.486
0.7,489.42,57.5245,36.7008,102.148,133.35,-180.697,-153.589
0.72,487.543,56.5949,38.7957,104.744,129.799,-177.545,-153.724
0.74,485.618,55.6482,40.9403,107.231,124.349,-272.498,-153.897
0.76,483.648,54.687,43.1327,109.62,119.42,-246.471,-154.116
0.78,481.631,53.7141,45.3719,111.962,117.117,-115.13,-154.388
0.8,479.57,52.7335,47.6539,114.1,106.904,-510.646,-154.724
0.82,477.468,51.75,49.9748,116.041,97.0654,-491.936,-155.141
0.84,475.325,50.7674,52.3327,117.899,92.8978,-208.381,-155.643
0.86,473.141,49.7924,54.7244,119.583,84.1881,-435.486,-156.25
0.88,470.918,48.8302,57.1462,121.091,75.3814,-440.331,-156.968
0.9,468.656,47.887,59.5972,122.549,72.9047,-123.837,-157.803
0.92,466.356,46.9701,62.0737,123.826,63.8784,-451.315,-158.771
0.94,464.014,46.0856,64.5765,125.141,65.7061,91.387,-159.868
0.96,461.629,45.2391,67.108,126.572,71.5985,294.618,-161.085
0.98,459.194,44.436,69.6714,128.169,79.8082,410.485,-162.411
1,456.707,43.6805,72.2711,129.987,90.9069,554.934,-163.822
1.02,454.181,42.9823,74.8919,131.043,52.7901,-1905.84,-165.272
1.04,451.635,42.3475,77.5151,131.159,5.83314,-2347.85,-166.712
1.06,449.067,41.7741,80.1469,131.587,21.4074,778.711,-168.115
1.08,446.467,41.2591,82.7973,132.523,46.7628,1267.77,-169.451
1.1,443.837,40.7996,85.4675,133.508,49.2832,126.017,-170.71
1.12,441.171,40.3919,88.1638,134.815,65.3198,801.832,-171.872
1.14,438.475,40.0327,90.8842,136.023,60.4101,-245.486,-172.937
1.16,435.745,39.7185,93.6318,137.377,67.6896,363.976,-173.904
1.18,432.987,39.4455,96.4031,138.565,59.4246,-413.249,-174.776
1.2,430.203,39.2106,99.1972,139.706,57.0151,-120.475,-175.561
1.22,427.394,39.0103,102.013,140.802,54.8193,-109.794,-176.266
1.24,424.564,38.8415,104.849,141.769,48.3749,-322.219,-176.896
1.26,421.716,38.7015,107.7,142.559,39.4788,-444.804,-177.463
1.28,418.851,38.5875,110.567,143.382,41.1541,83.7676,-177.97
1.3,415.973,38.4973,113.447,143.978,29.8215,-566.63,-178.428
1.32,413.082,38.4285,116.339,144.586,30.3876,28.3033,-178.841
1.34,410.18,38.3795,119.241,145.113,26.3231,-203.223,-179.216
1.36,407.269,38.3486,122.152,145.532,20.9514,-268.588,-179.558
1.38,404.352,38.3343,125.069,145.878,17.3374,-180.697,-179.873
1.4,401.428,38.3352,127.993,146.204,16.2728,-53.2323,179.837
1.42,398.5,38.3507,130.921,146.392,9.38457,-344.411,179.565
1.44,395.567,38.3795,133.854,146.656,13.2305,192.296,179.309
1.46,392.631,38.4213,136.79,146.795,6.94204,-314.423,179.063
1.48,389.701,38.4757,139.721,146.531,-13.2115,-1007.68,178.796
1.5,386.772,38.5443,142.65,146.483,-2.38748,541.201,178.528
1.52,383.834,38.626,145.59,146.971,24.3939,1339.07,178.296
1.54,380.888,38.7188,148.538,147.396,21.2383,-157.78,178.099
1.56,377.933,38.8214,151.494,147.83,21.7384,25.0064,177.934
1.58,374.97,38.9319,154.459,148.224,19.6731,-103.264,177.798
1.6,372,39.049,157.432,148.642,20.9027,61.4801,177.693
1.62,369.023,39.1711,160.411,148.981,16.9546,-197.405,177.617
1.64,366.037,39.2967,163.4,149.43,22.4648,275.508,177.571
1.66,363.044,39.4243,166.396,149.79,17.9609,-225.195,177.556
1.68,360.042,39.5521,169.4,150.195,20.2895,116.429,177.572
1.7,357.032,39.6787,172.413,150.661,23.262,148.628,177.62
1.72,354.014,39.8022,175.433,151.023,18.1041,-257.894,177.7
1.74,350.986,39.9211,178.463,151.495,23.5956,274.572,177.813
1.76,347.95,40.0333,181.501,151.913,20.9415,-132.702,177.959
1.78,344.907,40.1373,184.547,152.265,17.5883,-167.664,178.133
1.8,341.855,40.2316,187.6,152.653,19.3653,88.8547,178.334
1.82,338.802,40.3145,190.654,152.711,2.9362,-821.457,178.556
1.84,335.792,40.3843,193.665,150.527,-109.237,-5608.67,178.788
1.86,332.842,40.4408,196.616,147.55,-148.815,-1978.88,179.019
1.88,329.954,40.4846,199.503,144.385,-158.245,-471.533,179.242
1.9,327.13,40.5167,202.328,141.219,-158.337,-4.59654,179.449
1.92,324.371,40.5387,205.087,137.952,-163.323,-249.258,179.636
1.94,321.679,40.5519,207.779,134.609,-167.152,-191.496,179.797
1.96,319.054,40.5579,210.404,131.281,-166.425,36.353,179.933
1.98,316.495,40.5584,212.963,127.94,-167.034,-30.4131,-179.957
2,314.002,40.5545,215.456,124.639,-165.046,99.3871,-179.87
2.02,311.575,40.5475,217.883,121.351,-164.382,33.196,-179.805
2.04,309.213,40.5384,220.245,118.116,-161.762,131.017,-179.758
2.06,306.915,40.5279,222.544,114.907,-160.457,65.2317,-179.727
2.08,304.68,40.5168,224.779,111.75,-157.844,130.651,-179.708
2.1,302.507,40.5056,226.951,108.606,-157.196,32.3834,-179.7
2.12,300.397,40.4944,229.061,105.501,-155.234,98.1178,-179.7
2.14,298.349,40.4838,231.109,102.436,-153.278,97.782,-179.705
2.16,296.362,40.4737,233.097,99.3573,-153.931,-32.6567,-179.716
2.18,294.436,40.4644,235.023,96.3048,-152.626,65.2686,-179.731
2.2,292.57,40.456,236.888,93.2784,-151.317,65.4668,-179.748
2.22,290.765,40.4483,238.694,90.2652,-150.662,32.7435,-179.766
2.24,289.02,40.4414,240.439,87.252,-150.661,0.0205162,-179.785
2.26,287.335,40.4354,242.124,84.2518,-150.007,32.7029,-179.804
2.28,285.71,40.4301,243.749,81.2517,-150.005,0.114704,-179.823
2.3,284.145,40.4255,245.314,78.2516,-150.005,0.0195766,-179.842
2.32,282.639,40.4216,246.819,75.2777,-148.695,65.5045,-179.859
2.34,281.194,40.4183,248.265,72.2777,-150.004,-65.4626,-179.876
2.36,279.808,40.4155,249.651,69.2907,-149.348,32.8009,-179.892
2.38,278.481,40.4131,250.977,66.3168,-148.693,32.76,-179.906
2.4,277.215,40.4112,252.243,63.3168,-150.002,-65.461,-179.92
2.42,276.008,40.4097,253.45,60.343,-148.692,65.4814,-179.932
2.44,274.861,40.4084,254.597,57.356,-149.346,-32.6879,-179.943
2.46,273.773,40.4074,255.685,54.3822,-148.692,32.7148,-179.952
2.48,272.746,40.4066,256.713,51.3822,-150,-65.4338,-179.961
2.5,271.778,40.406,257.681,48.4084,-148.691,65.4527,-179.968
2.52,270.869,40.4056,258.589,45.4215,-149.346,-32.7215,-179.974
2.54,270.021,40.4052,259.438,42.4215,-150,-32.7119,-179.98
2.56,269.232,40.405,260.226,39.4476,-148.691,65.4405,-179.984
2.58,268.503,40.4048,260.955,36.4476,-150,-65.441,-179.988
2.6,267.834,40.4047,261.625,33.4607,-149.346,32.7222,-179.991
2.62,267.224,40.4046,262.234,30.4607,-150,-32.7223,-179.994
2.64,266.675,40.4046,262.784,27.4869,-148.691,65.4487,-179.995
2.66,266.185,40.4045,263.273,24.4738,-150.654,-98.1725,-179.997
2.68,265.755,40.4045,263.703,21.4869,-149.346,65.4473,-179.998
2.7,265.385,40.4045,264.073,18.5,-149.346,0.00127603,-179.998
2.72,265.076,40.4045,264.383,15.4869,-150.654,-65.4498,-179.999
2.74,264.826,40.4045,264.633,12.5,-149.346,65.4498,-179.999
2.76,264.636,40.4045,264.823,9.5,-150,-32.7249,-179.999
2.78,264.506,40.4045,264.953,6.5,-150,6.21583e-09,-179.999
2.8,264.436,40.4045,265.022,3.48691,-150.654,-32.7249,-180
2.82,264.423,40.4045,265.035,0.65,-141.846,440.45,-180
