"time","x","y","position","velocity","acceleration","jerk","heading"
0,425.468,12.4319,0,0,0,0,180
0.02,425.295,12.4319,0.173489,8.67443,433.722,21686.1,179.998
0.04,425.121,12.4319,0.346977,8.67443,-1.41691e-09,-21686.1,179.996
0.06,424.948,12.4319,0.520466,8.67443,-3.11795e-09,-8.5052e-08,179.994
0.08,424.774,12.4319,0.693955,8.67443,-4.39293e-09,-6.3749e-08,179.992
0.1,424.6,12.432,0.868443,8.72444,2.50007,125.004,179.99
0.12,424.37,12.432,1.09767,11.4611,136.833,6716.62,179.985
0.14,423.949,12.4321,1.51884,21.0588,479.887,17152.7,179.972
0.16,423.527,12.4324,1.94102,21.1088,2.50024,-23869.3,179.959
0.18,422.997,12.4328,2.47137,26.5177,270.441,13397.1,179.933
0.2,422.445,12.4336,3.02321,27.5921,53.7228,-10835.9,179.905
0.22,421.788,12.4348,3.68045,32.8621,263.497,10488.7,179.859
0.24,421.088,12.4369,4.3799,34.9721,105.502,-7899.73,179.804
0.26,420.331,12.4398,5.13727,37.8688,144.837,1966.75,179.737
0.28,419.498,12.4443,5.96979,41.6257,187.842,2150.26,179.649
0.3,418.599,12.4506,6.86944,44.9828,167.853,-999.477,179.54
0.32,417.636,12.4592,7.83173,48.1146,156.591,-563.075,179.408
0.34,416.609,12.4712,8.85916,51.3715,162.844,312.624,179.251
0.36,415.515,12.4872,9.95321,54.7024,166.549,185.246,179.063
0.38,414.352,12.5083,11.1164,58.158,172.779,311.484,178.838
0.4,413.121,12.5359,12.3477,61.5656,170.381,-119.857,178.576
0.42,411.813,12.5717,13.6562,65.4237,192.905,1126.17,178.269
0.44,410.436,12.6173,15.0336,68.8725,172.437,-1023.41,177.914
0.46,408.992,12.6748,16.4796,72.3013,171.444,-49.6361,177.509
0.48,407.468,12.7469,18.0051,76.2721,198.537,1354.68,177.043
0.5,405.873,12.8364,19.6027,79.8794,180.366,-908.582,176.518
0.52,404.204,12.9462,21.2747,83.6009,186.073,285.367,175.938
0.54,402.465,13.0794,23.019,87.2143,180.67,-270.136,175.301
0.56,400.656,13.2387,24.835,90.8029,179.431,-61.9657,174.627
0.58,398.788,13.4259,26.7126,93.8811,153.913,-1275.92,173.939
0.6,396.87,13.6412,28.6427,96.5022,131.052,-1143.03,173.276
0.62,394.943,13.879,30.5844,97.0878,29.2824,-5088.48,172.694
0.64,393.048,14.1301,32.4955,95.5535,-76.7175,-5300,172.242
0.66,391.199,14.3878,34.3627,93.3572,-109.814,-1654.85,171.964
0.68,389.389,14.6462,36.1908,91.4091,-97.4056,620.444,171.849
0.7,387.623,14.8989,37.9749,89.2006,-110.425,-650.974,171.915
0.72,385.897,15.1411,39.7174,87.1287,-103.596,341.448,172.152
0.74,384.201,15.3704,41.4294,85.5984,-76.5103,1354.29,172.509
0.76,382.527,15.584,43.1165,84.3553,-62.1587,717.58,172.973
0.78,380.871,15.7807,44.7844,83.3926,-48.1315,701.36,173.512
0.8,379.225,15.9595,46.4405,82.8059,-29.3386,939.644,174.103
0.82,377.585,16.12,48.0876,82.3549,-22.5507,339.395,174.727
0.84,375.948,16.2618,49.7307,82.1558,-9.9539,629.84,175.372
0.86,374.314,16.3848,51.3695,81.9391,-10.8336,-43.9874,176.028
0.88,372.679,16.4889,53.0083,81.9438,0.232752,553.32,176.69
0.9,371.044,16.5739,54.6448,81.8226,-6.05578,-314.427,177.357
0.92,369.409,16.6398,56.2811,81.813,-0.480585,278.76,178.029
0.94,367.777,16.6862,57.9144,81.6665,-7.32732,-342.337,178.71
0.96,366.054,16.7184,59.6375,86.1551,224.431,11587.9,179.026
0.98,364.284,16.7465,61.4079,88.5208,118.287,-5307.22,179.148
1,362.512,16.7711,63.18,88.6025,4.0823,-5710.23,179.259
1.02,360.736,16.7925,64.9559,88.797,9.72659,282.215,179.358
1.04,358.958,16.8109,66.734,88.9053,5.41362,-215.648,179.448
1.06,357.178,16.8269,68.5143,89.014,5.43496,1.06656,179.529
1.08,355.396,16.8403,70.2965,89.1107,4.83536,-29.9798,179.602
1.1,353.612,16.8516,72.0804,89.1955,4.23786,-29.8749,179.668
1.12,351.826,16.8611,73.8663,89.2926,4.85935,31.0741,179.726
1.14,350.039,16.8688,75.6538,89.3778,4.25563,-30.1856,179.777
1.16,348.249,16.8751,77.4431,89.463,4.26137,0.286805,179.821
1.18,346.459,16.88,79.2338,89.5361,3.65499,-30.319,179.859
1.2,344.667,16.8838,81.0257,89.597,3.04699,-30.3999,179.892
1.22,342.873,16.8868,82.8196,89.6947,4.88314,91.8076,179.917
1.24,341.078,16.8891,84.6147,89.7557,3.05175,-91.5697,179.937
1.26,339.281,16.8908,86.4111,89.8168,3.05266,0.0454873,179.952
1.28,337.483,16.8921,88.2091,89.9023,4.27522,61.1282,179.96
1.3,335.684,16.8933,90.0081,89.9512,2.44329,-91.5968,179.964
1.32,333.883,16.8945,91.8089,90.0367,4.27606,91.6385,179.961
1.34,332.082,16.8958,93.6108,90.0978,3.0545,-61.0778,179.953
1.36,330.278,16.8975,95.4143,90.1711,3.66602,30.5762,179.939
1.38,328.473,16.8997,97.2189,90.2322,3.05568,-30.5172,179.92
1.4,326.668,16.9025,99.0248,90.2933,3.05641,0.0364563,179.896
1.42,324.861,16.9062,100.832,90.3545,3.05839,0.0989585,179.867
1.44,323.052,16.911,102.64,90.4157,3.06016,0.0885387,179.833
1.46,321.243,16.9169,104.45,90.477,3.06316,0.149997,179.794
1.48,319.432,16.924,106.26,90.5138,1.84343,-60.9865,179.752
1.5,317.621,16.9325,108.071,90.563,2.45745,30.7012,179.706
1.52,315.809,16.9425,109.883,90.5878,1.24217,-60.764,179.658
1.54,313.997,16.9542,111.696,90.625,1.8566,30.721,179.607
1.56,312.184,16.9674,113.508,90.6377,0.636594,-61.0001,179.555
1.58,310.377,16.9822,115.316,90.3761,-13.0796,-685.808,179.504
1.6,308.609,16.9983,117.084,88.4145,-98.0791,-4249.98,179.454
1.62,306.904,17.0153,118.788,85.2162,-159.915,-3091.79,179.408
1.64,305.259,17.033,120.434,82.2678,-147.42,624.731,179.366
1.66,303.675,17.051,122.018,79.2071,-153.034,-280.698,179.329
1.68,302.153,17.0693,123.54,76.0964,-155.535,-125.049,179.297
1.7,300.691,17.0875,125.003,73.1356,-148.043,374.585,179.27
1.72,299.292,17.1057,126.402,69.9624,-158.656,-530.618,179.249
1.74,297.954,17.1235,127.739,66.8636,-154.943,185.618,179.232
1.76,296.674,17.1407,129.02,64.0268,-141.837,655.333,179.218
1.78,295.455,17.1575,130.239,60.9535,-153.665,-591.405,179.21
1.8,294.302,17.1734,131.392,57.6666,-164.348,-534.164,179.205
1.82,293.208,17.1887,132.486,54.6797,-149.343,750.274,179.203
1.84,292.174,17.2031,133.52,51.705,-148.735,30.3703,179.203
1.86,291.201,17.2166,134.493,48.6803,-151.235,-124.988,179.205
1.88,290.286,17.2292,135.408,45.7432,-146.853,219.086,179.21
1.9,289.429,17.2411,136.265,42.843,-145.01,92.1489,179.215
1.92,288.638,17.2519,137.057,39.5804,-163.133,-906.149,179.221
1.94,287.913,17.2617,137.781,36.2178,-168.129,-249.803,179.228
1.96,287.241,17.2708,138.454,33.6298,-129.401,1936.42,179.234
1.98,286.62,17.279,139.075,31.0672,-128.126,63.7346,179.241
2,286.086,17.286,139.608,26.6668,-220.024,-4594.88,179.248
2.02,285.572,17.2928,140.123,25.7167,-47.5025,8626.06,179.255
2.04,285.178,17.2979,140.516,19.6906,-301.308,-12690.3,179.26
2.06,284.8,17.3028,140.894,18.8905,-40.0031,13065.2,179.265
2.08,284.443,17.3073,141.252,17.8904,-50.0055,-500.12,179.27
2.1,284.144,17.3111,141.551,14.9401,-147.514,-4875.4,179.275
2.12,283.845,17.3149,141.85,14.9401,3.54143e-09,7375.68,179.28
2.14,283.546,17.3186,142.148,14.9401,-0.00312471,-0.156235,179.285
2.16,283.248,17.3224,142.447,14.9401,0.00312478,0.312474,179.29
2.18,282.948,17.3261,142.746,14.9523,0.60774,30.2308,179.294
2.2,282.65,17.3297,143.045,14.9401,-0.610865,-60.9303,179.299
2.22,282.351,17.3333,143.344,14.94,-0.00304139,30.3912,179.304
2.24,282.052,17.337,143.642,14.9278,-0.607824,-30.2391,179.31
2.26,281.754,17.3406,143.941,14.94,0.607824,60.7824,179.315
2.28,281.455,17.3441,144.24,14.9277,-0.613823,-61.0823,179.321
2.3,281.156,17.3477,144.539,14.94,0.613823,61.3823,179.326
2.32,280.858,17.3512,144.837,14.9277,-0.613823,-61.3823,179.332
2.34,280.559,17.3546,145.136,14.9399,0.610865,61.2344,179.337
2.36,280.26,17.358,145.434,14.9277,-0.61374,-61.2303,179.343
2.38,279.962,17.3615,145.733,14.9277,0.00287486,30.8307,179.349
2.4,279.663,17.3649,146.032,14.9277,-0.00287493,-0.287489,179.355
2.42,279.365,17.3682,146.33,14.9398,0.608074,30.5474,179.36
2.44,279.066,17.3716,146.629,14.9277,-0.608074,-60.8074,179.366
2.46,278.768,17.3748,146.927,14.9276,-0.00279158,30.2641,179.372
2.48,278.469,17.378,147.226,14.9275,-0.00270807,0.00417553,179.378
2.5,278.171,17.3813,147.524,14.9154,-0.608157,-30.2725,179.385
2.52,277.872,17.3845,147.823,14.9275,0.608157,60.8157,179.391
2.54,277.574,17.3877,148.121,14.9275,1.42439e-08,-30.4078,179.397
2.56,277.275,17.3908,148.42,14.9275,-0.00262483,-0.131242,179.403
2.58,276.977,17.3938,148.718,14.9153,-0.610865,-30.412,179.41
2.6,276.678,17.3969,149.017,14.9275,0.610865,61.0865,179.416
2.62,276.38,17.3999,149.315,14.9274,-0.00254151,-30.6703,179.422
2.64,276.081,17.4029,149.614,14.9152,-0.610865,-30.4162,179.429
2.66,275.783,17.4059,149.912,14.9274,0.610865,61.0865,179.435
2.68,275.484,17.4089,150.211,14.9274,5.33322e-08,-30.5433,179.441
2.7,275.186,17.4117,150.509,14.9152,-0.613324,-30.6662,179.448
2.72,274.888,17.4145,150.808,14.9273,0.60849,61.0907,179.454
2.74,274.589,17.4174,151.106,14.9152,-0.60849,-60.849,179.461
2.76,274.291,17.4202,151.405,14.9273,0.60849,60.849,179.467
2.78,273.992,17.4229,151.703,14.9151,-0.613157,-61.0823,179.474
2.8,273.694,17.4257,152.001,14.9151,0.00229154,30.7724,179.481
2.82,273.396,17.4284,152.3,14.9273,0.608574,30.3141,179.487
2.84,273.097,17.431,152.598,14.9151,-0.610865,-60.9719,179.494
2.86,272.799,17.4336,152.897,14.9273,0.608657,60.9761,179.5
2.88,272.501,17.4362,153.195,14.915,-0.610865,-60.9761,179.507
2.9,272.202,17.4388,153.493,14.9273,0.610865,61.0865,179.513
2.92,271.904,17.4413,153.792,14.915,-0.61299,-61.1928,179.52
2.94,271.605,17.4438,154.09,14.915,-2.34532e-08,30.6495,179.527
2.96,271.307,17.4462,154.389,14.9272,0.608824,30.4412,179.533
2.98,271.009,17.4487,154.687,14.915,-0.608824,-60.8824,179.54
3,270.71,17.451,154.985,14.9272,0.608824,60.8824,179.546
3.02,270.412,17.4533,155.284,14.9149,-0.612823,-61.0823,179.553
3.04,270.113,17.4556,155.582,14.9271,0.610865,61.1844,179.559
3.06,269.815,17.4579,155.88,14.9149,-0.610865,-61.0865,179.566
3.08,269.516,17.4602,156.179,14.9271,0.610865,61.0865,179.572
3.1,269.218,17.4624,156.477,14.9149,-0.61274,-61.1803,179.579
3.12,268.92,17.4646,156.776,14.9271,0.610865,61.1803,179.585
3.14,268.621,17.4668,157.074,14.9149,-0.610865,-61.0865,179.592
3.16,268.323,17.4688,157.373,14.9271,0.609074,60.9969,179.598
3.18,268.024,17.4709,157.671,14.9148,-0.610865,-60.9969,179.605
3.2,267.726,17.4729,157.97,14.927,0.609157,61.0011,179.611
3.22,267.428,17.4749,158.268,14.9148,-0.610865,-61.0011,179.618
3.24,267.129,17.4769,158.566,14.927,0.610865,61.0865,179.624
3.26,266.831,17.4789,158.865,14.927,4.00691e-08,-30.5433,179.63
3.28,266.532,17.4808,159.163,14.9148,-0.61249,-30.6245,179.637
3.3,266.234,17.4827,159.462,14.927,0.610865,61.1678,179.643
3.32,265.935,17.4845,159.76,14.927,-0.00154158,-30.6203,179.649
3.34,265.637,17.4863,160.059,14.927,-4.87004e-08,0.0770767,179.655
3.36,265.339,17.488,160.356,14.8647,-3.11082,-155.541,179.662
3.38,265.041,17.4898,160.655,14.927,3.11082,311.082,179.668
3.4,264.742,17.4915,160.953,14.9269,-0.00145834,-155.614,179.674
3.42,264.444,17.4932,161.252,14.9269,-8.89253e-09,0.0729166,179.68
3.44,264.145,17.4949,161.55,14.9269,3.13803e-08,2.01364e-06,179.686
3.46,263.847,17.4965,161.849,14.9269,-0.001375,-0.0687514,179.692
3.48,263.548,17.4981,162.147,14.9269,-1.6212e-08,0.068749,179.698
3.5,263.25,17.4997,162.446,14.9269,2.40608e-08,2.01364e-06,179.704
3.52,262.951,17.5012,162.744,14.9269,-0.00129165,-0.0645837,179.71
3.54,262.653,17.5027,163.043,14.9269,-2.38163e-08,0.0645813,179.716
3.56,262.354,17.5042,163.342,14.9391,0.610865,30.5433,179.721
3.58,262.055,17.5056,163.64,14.9269,-0.612074,-61.1469,179.727
3.6,261.757,17.507,163.939,14.9269,-3.78495e-08,30.6037,179.733
3.62,261.458,17.5083,164.237,14.9269,2.5655e-09,2.02075e-06,179.739
3.64,261.159,17.5097,164.536,14.9391,0.610865,30.5433,179.744
3.66,260.861,17.511,164.835,14.9268,-0.61199,-61.1428,179.75
3.68,260.562,17.5123,165.133,14.9268,-1.13262e-08,30.5995,179.756
3.7,260.264,17.5135,165.432,14.939,0.609824,30.4912,179.761
3.72,259.965,17.5148,165.731,14.9391,0.00104165,-30.4391,179.766
3.74,259.666,17.516,166.029,14.9268,-0.611907,-30.6474,179.772
3.76,259.368,17.5172,166.328,14.939,0.610865,61.1386,179.777
3.78,259.069,17.5183,166.627,14.939,-0.000958282,-30.5912,179.782
3.8,258.77,17.5194,166.925,14.9268,-0.610865,-30.4953,179.788
3.82,258.471,17.5205,167.224,14.939,0.610865,61.0865,179.793
3.84,258.173,17.5216,167.523,14.939,1.44389e-08,-30.5433,179.798
3.86,257.874,17.5227,167.822,14.939,3.75558e-08,1.15585e-06,179.803
3.88,257.575,17.5237,168.121,14.939,-0.000875041,-0.0437539,179.808
3.9,257.276,17.5247,168.419,14.939,-4.56692e-09,0.0437518,179.813
3.92,256.978,17.5256,168.718,14.939,-0.00079159,-0.0395793,179.818
3.94,256.679,17.5266,169.017,14.939,0.00079165,0.079162,179.823
3.96,256.38,17.5275,169.316,14.939,-0.000791721,-0.0791686,179.828
3.98,256.081,17.5284,169.614,14.939,-3.1406e-10,0.0395861,179.833
4,255.782,17.5292,169.913,14.939,-0.000708269,-0.0354134,179.838
4.02,255.483,17.5301,170.212,14.9512,0.611574,30.6141,179.842
4.04,255.185,17.5308,170.511,14.939,-0.611574,-61.1574,179.847
4.06,254.886,17.5316,170.81,14.9512,0.610865,61.1219,179.851
4.08,254.587,17.5323,171.109,14.939,-0.61149,-61.1178,179.856
4.1,254.288,17.5331,171.408,14.9512,0.61149,61.149,179.86
4.12,253.989,17.5338,171.707,14.939,-0.61149,-61.149,179.865
4.14,253.69,17.5345,172.006,14.9512,0.610865,61.1178,179.869
4.16,253.391,17.5352,172.305,14.9512,8.15055e-09,-30.5433,179.873
4.18,253.092,17.5358,172.603,14.9389,-0.611407,-30.5703,179.878
4.2,252.793,17.5364,172.902,14.9512,0.610865,61.1136,179.882
4.22,252.494,17.537,173.202,14.9512,-1.00504e-08,-30.5433,179.886
4.24,252.195,17.5376,173.501,14.9512,1.57492e-09,5.81264e-07,179.89
4.26,251.896,17.5382,173.8,14.9512,1.39017e-08,6.16338e-07,179.894
4.28,251.597,17.5387,174.099,14.9512,-0.000458322,-0.0229168,179.898
4.3,251.298,17.5393,174.398,14.9512,0.000458385,0.0458354,179.902
4.32,250.999,17.5398,174.697,14.9634,0.610407,30.4974,179.905
4.34,250.7,17.5403,174.996,14.9512,-0.610865,-61.0636,179.909
4.36,250.401,17.5407,175.295,14.9511,-0.000374943,30.5245,179.913
4.38,250.101,17.5412,175.594,14.9634,0.61124,30.5808,179.916
4.4,249.802,17.5416,175.893,14.9511,-0.61124,-61.124,179.92
4.42,249.503,17.542,176.192,14.9634,0.610865,61.1053,179.923
4.44,249.204,17.5424,176.491,14.9511,-0.610865,-61.0865,179.927
4.46,248.905,17.5428,176.791,14.9634,0.610865,61.0865,179.93
4.48,248.606,17.5431,177.09,14.9634,-0.000291638,-30.5578,179.933
4.5,248.306,17.5435,177.389,14.9634,0.000291665,0.0291651,179.936
4.52,248.007,17.5438,177.688,14.9511,-0.611157,-30.5724,179.94
4.54,247.708,17.5441,177.988,14.9634,0.610865,61.1011,179.943
4.56,247.409,17.5444,178.287,14.9634,6.34071e-10,-30.5433,179.946
4.58,247.11,17.5447,178.586,14.9634,5.41158e-09,2.38876e-07,179.949
4.6,246.81,17.5449,178.886,14.9756,0.610657,30.5328,179.951
4.62,246.511,17.5452,179.185,14.9634,-0.610657,-61.0657,179.954
4.64,246.211,17.5454,179.484,14.9634,-0.000208349,30.5224,179.957
4.66,245.912,17.5456,179.783,14.9634,-8.0612e-09,0.010417,179.96
4.68,245.613,17.5458,180.083,14.9756,0.610865,30.5433,179.962
4.7,245.313,17.546,180.382,14.9756,1.18483e-10,-30.5433,179.964
4.72,245.014,17.5462,180.682,14.9634,-0.610865,-30.5433,179.967
4.74,244.714,17.5464,180.981,14.9756,0.610865,61.0865,179.969
4.76,244.415,17.5465,181.281,14.9756,-0.000124985,-30.5495,179.971
4.78,244.115,17.5467,181.58,14.9756,0.000124997,0.0124991,179.973
4.8,243.816,17.5468,181.88,14.9633,-0.61099,-30.5558,179.976
4.82,243.517,17.5469,182.179,14.9756,0.610865,61.0928,179.978
4.84,243.217,17.547,182.479,14.9878,0.610865,3.20132e-07,179.979
4.86,242.917,17.5471,182.778,14.9756,-0.610865,-61.0865,179.981
4.88,242.618,17.5472,183.078,14.9756,-3.30402e-11,30.5433,179.983
4.9,242.318,17.5473,183.377,14.9756,1.67937e-09,8.56204e-08,179.985
4.92,242.019,17.5474,183.677,14.9878,0.610865,30.5433,179.986
4.94,241.719,17.5474,183.977,14.9756,-0.610907,-61.0886,179.988
4.96,241.419,17.5475,184.276,14.9878,0.610907,61.0907,179.989
4.98,241.12,17.5475,184.576,14.9756,-0.610907,-61.0907,179.991
5,240.82,17.5476,184.876,14.9878,0.610907,61.0907,179.992
5.02,240.52,17.5476,185.175,14.9878,-4.16719e-05,-30.5474,179.993
5.04,240.221,17.5477,185.475,14.9878,4.16761e-05,0.0041674,179.994
5.06,239.921,17.5477,185.775,14.9878,-4.16785e-05,-0.00416773,179.995
5.08,239.621,17.5477,186.075,14.9878,-1.02878e-09,0.00208387,179.996
5.1,239.321,17.5477,186.374,14.9878,-6.77769e-10,1.75504e-08,179.997
5.12,239.022,17.5477,186.674,14.9878,-5.3122e-10,7.32747e-09,179.998
5.14,238.722,17.5477,186.974,15,0.610865,30.5433,179.998
5.16,238.559,17.5478,187.137,8.15,-342.5,-17155.5,179.998
5.18,238.409,17.5478,187.287,7.48778,-33.1109,15469.4,179.999
5.2,238.259,17.5478,187.437,7.5,0.610865,1686.09,179.999
5.22,238.109,17.5478,187.587,7.5,-5.44009e-11,-30.5433,179.999
5.24,237.959,17.5478,187.737,7.5,5.44009e-11,5.44009e-09,179.999
5.26,237.809,17.5478,187.887,7.5,1.66533e-11,-1.88738e-09,179.999
