"time","x","y","position","velocity","acceleration","jerk","heading"
0,503.1,32.1,0,0,0,0,180
0.02,502.856,32.1,0.244476,12.2238,611.191,30559.6,179.998
0.04,502.611,32.1,0.488953,12.2238,1.56657e-09,-30559.6,179.996
0.06,502.366,32.1,0.733691,12.2369,0.654498,32.7249,179.995
0.08,502.122,32.1,0.978167,12.2238,-0.654498,-65.4498,179.993
0.1,501.561,32.1001,1.53855,28.0191,789.764,39520.9,179.983
0.12,500.933,32.1003,2.16715,31.4298,170.537,-30961.4,179.97
0.14,500.168,32.1008,2.93165,38.2251,339.764,8461.39,179.949
0.16,499.273,32.1019,3.82675,44.755,326.493,-663.578,179.915
0.18,498.269,32.1038,4.83145,50.2349,273.994,-2624.93,179.868
0.2,497.152,32.1069,5.94791,55.8232,279.417,271.13,179.801
0.22,495.909,32.1121,7.1911,62.1594,316.808,1869.58,179.71
0.24,494.559,32.1202,8.54101,67.4959,266.827,-2499.09,179.595
0.26,493.101,32.1322,9.99937,72.9176,271.084,212.842,179.451
0.28,491.528,32.1498,11.5726,78.6596,287.101,800.861,179.268
0.3,489.846,32.1744,13.2544,84.0903,271.535,-778.31,179.045
0.32,488.057,32.2082,15.0435,89.4585,268.409,-156.286,178.777
0.34,486.175,32.2535,16.9263,94.1397,234.06,-1717.44,178.457
0.36,484.27,32.3106,18.8317,95.2695,56.494,-8878.31,178.096
0.38,482.377,32.38,20.7269,94.7572,-25.6158,-4105.49,177.698
0.4,480.493,32.4628,22.6126,94.2892,-23.4014,110.721,177.262
0.42,478.618,32.56,24.4898,93.8558,-21.672,86.4705,176.79
0.44,476.755,32.6726,26.3562,93.3195,-26.8113,-256.966,176.281
0.46,474.902,32.8017,28.2136,92.8709,-22.4312,219.005,175.737
0.48,473.06,32.9483,30.0615,92.3969,-23.6984,-63.359,175.155
0.5,471.228,33.1132,31.9006,91.9528,-22.2064,74.5975,174.54
0.52,469.407,33.2975,33.7311,91.526,-21.3396,43.3396,173.892
0.54,467.596,33.502,35.5532,91.1066,-20.9707,18.4471,173.214
0.56,465.795,33.7276,37.3691,90.7963,-15.5131,272.877,172.509
0.58,464.003,33.9747,39.178,90.445,-17.5688,-102.782,171.78
0.6,462.219,34.2443,40.9822,90.2076,-11.8694,284.97,171.034
0.62,460.44,34.5368,42.7845,90.1173,-4.51453,367.743,170.277
0.64,458.667,34.8527,44.5856,90.052,-3.26606,62.4235,169.517
0.66,456.897,35.1924,46.388,90.1221,3.50687,338.647,168.763
0.68,455.128,35.556,48.1945,90.3227,10.0283,326.072,168.024
0.7,453.356,35.9436,50.008,90.6767,17.7038,383.774,167.311
0.72,451.58,36.3548,51.8311,91.1537,23.8488,307.248,166.637
0.74,449.796,36.7893,53.6673,91.8084,32.7339,444.258,166.012
0.76,447.999,37.2465,55.5214,92.708,44.9781,612.211,165.452
0.78,446.189,37.725,57.3933,93.5966,44.432,-27.3061,164.965
0.8,444.361,38.2233,59.2878,94.7209,56.2149,589.146,164.56
0.82,442.514,38.7396,61.2056,95.8934,58.6239,120.451,164.247
0.84,440.645,39.2714,63.1496,97.2007,65.3662,337.114,164.032
0.86,438.751,39.8159,65.1195,98.4906,64.4923,-43.6951,163.917
0.88,436.834,40.3697,67.1151,99.7806,64.5017,0.467678,163.902
0.9,434.891,40.9296,69.1375,101.121,67.0204,125.935,163.987
0.92,432.921,41.492,71.1858,102.415,64.6824,-116.9,164.172
0.94,430.926,42.0528,73.2584,103.632,60.8733,-190.452,164.447
0.96,428.908,42.6083,75.3513,104.645,50.6622,-510.556,164.803
0.98,426.867,43.1549,77.464,105.634,49.435,-61.3605,165.233
1,424.806,43.689,79.5931,106.452,40.9012,-426.69,165.726
1.02,422.727,44.2079,81.7358,107.136,34.1864,-335.74,166.273
1.04,420.632,44.7086,83.8903,107.724,29.4317,-237.735,166.864
1.06,418.523,45.189,86.0535,108.165,22.0112,-371.027,167.488
1.08,416.402,45.6472,88.2236,108.501,16.8134,-259.887,168.137
1.1,414.271,46.0819,90.3983,108.736,11.747,-253.32,168.803
1.12,412.133,46.492,92.5748,108.827,4.53682,-360.51,169.478
1.14,409.989,46.877,94.7531,108.913,4.31764,-10.9591,170.157
1.16,407.843,47.2364,96.9295,108.821,-4.57469,-444.617,170.833
1.18,405.694,47.5704,99.1044,108.743,-3.91229,33.12,171.502
1.2,403.543,47.879,101.277,108.614,-6.46235,-127.503,172.159
1.22,401.393,48.1626,103.445,108.439,-8.7516,-114.462,172.803
1.24,399.244,48.422,105.61,108.228,-10.5461,-89.723,173.43
1.26,397.098,48.6576,107.769,107.956,-13.6207,-153.733,174.038
1.28,394.955,48.8702,109.923,107.685,-13.5201,5.02973,174.626
1.3,392.815,49.0607,112.071,107.416,-13.4518,3.41778,175.193
1.32,390.679,49.23,114.214,107.147,-13.4831,-1.56429,175.738
1.34,388.547,49.379,116.351,106.839,-15.3629,-93.994,176.261
1.36,386.421,49.5085,118.481,106.53,-15.4626,-4.98384,176.761
1.38,384.299,49.6196,120.606,106.244,-14.3196,57.1483,177.239
1.4,382.182,49.7132,122.725,105.953,-14.5085,-9.4439,177.694
1.42,380.07,49.7901,124.839,105.671,-14.1159,19.6287,178.126
1.44,377.963,49.8514,126.946,105.359,-15.5942,-73.9122,178.536
1.46,375.862,49.8978,129.047,105.064,-14.7591,41.7534,178.921
1.48,373.768,49.9305,131.142,104.727,-16.8566,-104.874,179.285
1.5,371.679,49.9504,133.231,104.442,-14.2454,130.559,179.624
1.52,369.596,49.9581,135.314,104.15,-14.5903,-17.2436,179.941
1.54,367.515,49.9546,137.396,104.097,-2.64498,597.266,-179.746
1.56,365.441,49.94,139.469,103.694,-20.1741,-876.456,-179.464
1.58,363.376,49.9161,141.534,103.227,-23.348,-158.694,-179.218
1.6,361.32,49.884,143.591,102.827,-20.0174,166.528,-179.003
1.62,359.272,49.845,145.639,102.414,-20.6451,-31.3836,-178.82
1.64,357.233,49.8001,147.679,101.99,-21.1772,-26.6021,-178.666
1.66,355.201,49.7503,149.711,101.642,-17.3808,189.82,-178.539
1.68,353.174,49.6968,151.739,101.357,-14.276,155.237,-178.438
1.7,351.155,49.6403,153.758,100.971,-19.2985,-251.123,-178.363
1.72,349.143,49.5817,155.771,100.66,-15.5509,187.377,-178.312
1.74,347.137,49.522,157.778,100.348,-15.6123,-3.07016,-178.285
1.76,345.137,49.462,159.779,100.034,-15.6706,-2.91464,-178.282
1.78,343.144,49.4025,161.773,99.7195,-15.7379,-3.36237,-178.303
1.8,341.156,49.3443,163.762,99.4539,-13.2829,122.747,-178.348
1.82,339.174,49.2882,165.744,99.0999,-17.6964,-220.674,-178.416
1.84,337.199,49.2351,167.72,98.7818,-15.9079,89.425,-178.508
1.86,335.231,49.1857,169.689,98.4762,-15.2808,31.3563,-178.623
1.88,333.267,49.1407,171.654,98.2067,-13.4727,90.4056,-178.762
1.9,331.309,49.1009,173.612,97.9262,-14.0252,-27.6263,-178.922
1.92,329.357,49.0672,175.564,97.5957,-16.526,-125.042,-179.103
1.94,327.41,49.04,177.511,97.3656,-11.5065,250.976,-179.305
1.96,325.468,49.0201,179.454,97.1124,-12.6593,-57.6387,-179.526
1.98,323.53,49.008,181.391,96.8865,-11.2914,68.3919,-179.764
2,321.596,49.0042,183.325,96.7015,-9.25111,102.017,179.984
2.02,319.665,49.009,185.257,96.5707,-6.53885,135.613,179.722
2.04,317.735,49.0229,187.186,96.4814,-4.4675,103.567,179.453
2.06,315.806,49.0459,189.116,96.4728,-0.430083,201.871,179.183
2.08,313.877,49.0779,191.046,96.4819,0.453171,44.1627,178.917
2.1,311.944,49.1189,192.979,96.6584,8.82475,418.579,178.66
2.12,310.008,49.1684,194.915,96.8149,7.82654,-49.9106,178.418
2.14,308.067,49.2259,196.857,97.1009,14.3029,323.818,178.197
2.16,306.119,49.2907,198.806,97.4527,17.5904,164.377,178.002
2.18,304.163,49.3619,200.763,97.8433,19.5289,96.9213,177.836
2.2,302.201,49.4386,202.727,98.2091,18.2911,-61.8887,177.701
2.22,300.227,49.5197,204.702,98.7514,27.1149,441.191,177.603
2.24,298.246,49.6039,206.685,99.1393,19.3928,-386.103,177.538
2.26,296.256,49.6902,208.677,99.6013,23.1005,185.384,177.508
2.28,294.258,49.7773,210.677,100.008,20.3329,-138.38,177.509
2.3,292.252,49.8643,212.685,100.373,18.2717,-103.062,177.538
2.32,290.245,49.9498,214.694,100.473,5.00052,-663.558,177.594
2.34,288.306,50.0301,216.634,97.0141,-172.968,-8898.44,177.669
2.36,286.483,50.103,218.459,91.2477,-288.319,-5767.54,177.755
2.38,284.783,50.1683,220.161,85.0661,-309.078,-1037.92,177.847
2.4,283.2,50.2266,221.744,79.1571,-295.45,681.399,177.939
2.42,281.737,50.278,223.208,73.1987,-297.919,-123.48,178.031
2.44,280.391,50.3233,224.554,67.3393,-292.971,247.41,178.119
2.46,279.177,50.3624,225.769,60.7412,-329.907,-1846.82,178.2
2.48,278.083,50.3961,226.864,54.7572,-299.198,1535.47,178.275
2.5,277.108,50.4248,227.84,48.7609,-299.817,-30.9362,178.343
2.52,276.248,50.4493,228.699,42.9894,-288.576,562.03,178.402
2.54,275.519,50.4693,229.429,36.4811,-325.411,-1841.77,178.453
2.56,274.946,50.4845,230.002,28.6335,-392.383,-3348.58,178.493
2.58,274.421,50.4982,230.528,26.293,-117.022,13768,178.53
2.6,273.993,50.5091,230.956,21.3995,-244.676,-6382.67,178.56
2.62,273.586,50.5192,231.362,20.3357,-53.1882,9574.38,178.589
2.64,273.179,50.5291,231.77,20.3725,1.83858,2751.34,178.617
2.66,272.772,50.5389,232.177,20.3723,-0.0121214,-92.5351,178.645
2.68,272.364,50.5484,232.585,20.385,0.636785,32.4453,178.674
2.7,271.957,50.5578,232.992,20.3718,-0.660278,-64.8531,178.702
2.72,271.549,50.5668,233.4,20.3715,-0.0169646,32.1657,178.73
2.74,271.142,50.5758,233.807,20.3714,-0.00552971,0.571743,178.758
2.76,270.735,50.5845,234.215,20.3711,-0.0108724,-0.267135,178.786
2.78,270.327,50.593,234.622,20.3708,-0.0158405,-0.248406,178.814
2.8,269.92,50.6013,235.029,20.3576,-0.659653,-32.1906,178.841
2.82,269.514,50.6095,235.436,20.3205,-1.85512,-59.7735,178.869
2.84,269.107,50.6174,235.843,20.3572,1.83513,184.513,178.896
2.86,268.7,50.6252,236.25,20.357,-0.00962323,-92.2375,178.923
2.88,268.293,50.6328,236.657,20.3569,-0.0047182,0.245251,178.95
2.9,267.886,50.6401,237.064,20.3567,-0.0137787,-0.453025,178.977
2.92,267.479,50.6472,237.471,20.3434,-0.663372,-32.4797,179.003
2.94,267.072,50.6543,237.878,20.3564,0.650155,65.6764,179.03
2.96,266.665,50.6611,238.285,20.3431,-0.662997,-65.6576,179.056
2.98,266.258,50.6677,238.692,20.343,-0.00824886,32.7374,179.082
3,265.852,50.6741,239.098,20.3297,-0.662497,-32.7124,179.107
3.02,265.445,50.6804,239.505,20.3427,0.650593,65.6545,179.133
3.04,265.038,50.6864,239.912,20.3294,-0.665841,-65.8217,179.158
3.06,264.632,50.6923,240.319,20.3294,-0.00365564,33.1093,179.183
3.08,264.226,50.698,240.725,20.3161,-0.661623,-32.8984,179.207
3.1,263.819,50.7036,241.131,20.3291,0.65103,65.6326,179.232
3.12,263.413,50.7088,241.538,20.3158,-0.664529,-65.7779,179.256
3.14,263.006,50.7141,241.944,20.3158,-9.05606e-08,33.2264,179.28
3.16,262.6,50.7191,242.35,20.3026,-0.663966,-33.1983,179.303
3.18,262.194,50.724,242.756,20.3156,0.651468,65.7717,179.327
3.2,261.788,50.7286,243.162,20.3024,-0.660373,-65.592,179.35
3.22,261.383,50.7331,243.567,20.2392,-3.15997,-124.98,179.372
3.24,260.977,50.7376,243.973,20.3023,3.15435,315.716,179.395
3.26,260.572,50.7417,244.379,20.289,-0.662466,-190.841,179.417
3.28,260.166,50.7458,244.785,20.289,-0.00253102,32.9968,179.439
3.3,259.76,50.7496,245.19,20.2758,-0.659373,-32.8421,179.46
3.32,259.355,50.7534,245.596,20.2757,-0.00234357,32.8515,179.481
3.34,258.949,50.757,246.001,20.2757,-0.00228126,0.00311539,179.502
3.36,258.544,50.7605,246.407,20.2625,-0.658873,-32.8296,179.522
3.38,258.139,50.7637,246.812,20.2624,-0.00412504,32.7374,179.542
3.4,257.734,50.767,247.217,20.2624,-2.80995e-08,0.206251,179.562
3.42,257.329,50.77,247.622,20.2493,-0.658373,-32.9187,179.581
3.44,256.924,50.7728,248.027,20.2492,-0.00362504,32.7374,179.6
3.46,256.519,50.7756,248.432,20.2492,-0.0017186,0.0953217,179.619
3.48,256.114,50.7782,248.837,20.236,-0.656155,-32.7218,179.637
3.5,255.709,50.7807,249.242,20.236,-0.00159375,32.728,179.655
3.52,255.305,50.7831,249.646,20.2229,-0.657498,-32.7952,179.672
3.54,254.9,50.7854,250.051,20.236,0.654498,65.5998,179.69
3.56,254.496,50.7875,250.455,20.2097,-1.31175,-98.3123,179.706
3.58,254.092,50.7895,250.859,20.2228,0.653217,98.2482,179.723
3.6,253.688,50.7913,251.263,20.1966,-1.31137,-98.2295,179.738
3.62,253.283,50.7932,251.668,20.2096,0.654499,98.2935,179.754
3.64,252.879,50.7949,252.071,20.1965,-0.655592,-65.5045,179.769
3.66,252.476,50.7964,252.475,20.1965,-0.00200006,32.6796,179.784
3.68,252.072,50.7979,252.879,20.1834,-0.654498,-32.6249,179.798
3.7,251.668,50.7992,253.283,20.1834,-0.00175005,32.6374,179.812
3.72,251.265,50.8005,253.686,20.1703,-0.654498,-32.6374,179.825
3.74,250.861,50.8017,254.09,20.1703,-0.000781232,32.6859,179.838
3.76,250.458,50.8027,254.493,20.1702,-0.00137517,-0.029697,179.851
3.78,250.055,50.8038,254.896,20.1571,-0.654498,-32.6562,179.863
3.8,249.652,50.8048,255.299,20.1441,-0.654499,-1.71896e-05,179.874
3.82,249.249,50.8056,255.702,20.144,-0.00112489,32.6687,179.885
3.84,248.846,50.8063,256.105,20.144,-0.000468804,0.032804,179.896
3.86,248.444,50.807,256.507,20.1309,-0.654498,-32.7015,179.906
3.88,248.041,50.8076,256.91,20.1309,-0.000406257,32.7046,179.916
3.9,247.639,50.8082,257.312,20.1178,-0.654498,-32.7046,179.925
3.92,247.236,50.8087,257.715,20.1178,-0.000343714,32.7077,179.934
3.94,246.834,50.8091,258.117,20.1047,-0.65478,-32.7218,179.942
3.96,246.432,50.8095,258.519,20.1047,8.90203e-09,32.739,179.95
3.98,246.03,50.8098,258.921,20.0916,-0.654717,-32.7359,179.957
4,245.628,50.8101,259.323,20.0916,3.41949e-10,32.7359,179.964
4.02,245.227,50.8103,259.724,20.0785,-0.654655,-32.7327,179.97
4.04,244.825,50.8105,260.126,20.0785,9.59517e-09,32.7327,179.976
4.06,244.424,50.8106,260.527,20.0524,-1.30909,-65.4545,179.98
4.08,244.023,50.8107,260.928,20.0655,0.654498,98.1795,179.985
4.1,243.622,50.8108,261.329,20.0524,-0.654498,-65.4498,179.989
4.12,243.221,50.8109,261.73,20.0393,-0.654498,-5.42089e-07,179.992
4.14,242.887,50.8109,262.064,16.7262,-165.655,-8250,179.994
4.16,242.686,50.8109,262.265,10.0131,-335.654,-8500,179.995
4.18,242.486,50.811,262.465,10.0131,6.24449e-05,16782.7,179.996
4.2,242.286,50.811,262.665,10.0131,-6.24431e-05,-0.0062444,179.997
4.22,242.086,50.811,262.865,10.0131,5.18874e-10,0.00312218,179.998
