"time","x","y","position","velocity","acceleration","jerk","heading"
0,425.468,41.4319,0,0,0,0,180
0.02,425.296,41.4319,0.172476,8.62382,431.191,21559.6,179.998
0.04,425.123,41.4319,0.344953,8.62382,1.56808e-09,-21559.6,179.996
0.06,424.951,41.4319,0.517429,8.62382,3.27818e-09,8.55049e-08,179.994
0.08,424.778,41.4319,0.689906,8.62382,4.70397e-09,7.12896e-08,179.992
0.1,424.605,41.432,0.863382,8.67382,2.50007,125.004,179.99
0.12,424.378,41.432,1.09007,11.3346,133.036,6526.82,179.985
0.14,423.963,41.4321,1.50467,20.7298,469.764,16836.4,179.972
0.16,423.548,41.4324,1.92,20.7667,1.84574,-23395.9,179.958
0.18,423.031,41.4328,2.4372,25.8597,254.646,12640,179.932
0.2,422.493,41.4336,2.97487,26.8835,51.1921,-10172.7,179.904
0.22,421.859,41.4349,3.60883,31.6979,240.721,9476.44,179.858
0.24,421.188,41.4367,4.28043,33.5802,94.1128,-7330.4,179.803
0.26,420.464,41.4396,5.00363,36.1602,129,1744.37,179.735
0.28,419.677,41.4438,5.79135,39.3856,161.269,1613.44,179.646
0.3,418.832,41.4497,6.63583,42.2243,141.935,-966.702,179.537
0.32,417.937,41.4579,7.53105,44.761,126.836,-754.947,179.404
0.34,416.989,41.469,8.47875,47.3852,131.211,218.732,179.246
0.36,415.991,41.4837,9.47739,49.9317,127.323,-194.357,179.057
0.38,414.942,41.5028,10.5264,52.4509,125.961,-68.1163,178.831
0.4,413.844,41.5276,11.6246,54.9092,122.915,-152.289,178.567
0.42,412.692,41.5592,12.7774,57.6415,136.614,684.923,178.259
0.44,411.495,41.599,13.9747,59.8627,111.063,-1277.54,177.902
0.46,410.255,41.6487,15.2155,62.0394,108.836,-111.37,177.496
0.48,408.968,41.7099,16.5043,64.4406,120.059,561.186,177.027
0.5,407.638,41.7848,17.8359,66.5812,107.028,-651.577,176.501
0.52,406.264,41.8756,19.2136,68.8851,115.196,408.413,175.918
0.54,404.846,41.9847,20.6355,71.0955,110.523,-233.672,175.281
0.56,403.377,42.1147,22.1102,73.7359,132.017,1074.73,174.606
0.58,401.856,42.2677,23.6387,76.4231,134.361,117.183,173.918
0.6,400.271,42.4462,25.2337,79.7531,166.5,1606.95,173.257
0.62,398.635,42.6487,26.8828,82.4516,134.927,-1578.63,172.678
0.64,396.967,42.8704,28.5652,84.12,83.4209,-2575.32,172.23
0.66,395.255,43.1092,30.294,86.4388,115.938,1625.88,171.957
0.68,393.501,43.3597,32.0655,88.578,106.959,-448.993,171.848
0.7,391.7,43.6173,33.8845,90.9494,118.57,580.587,171.92
0.72,389.855,43.8761,35.7476,93.1534,110.201,-418.474,172.163
0.74,387.977,44.1292,37.6425,94.7455,79.6021,-1529.94,172.525
0.76,386.07,44.3721,39.5654,96.147,70.078,-476.203,172.993
0.78,384.142,44.6002,41.5068,97.0684,46.0674,-1200.53,173.535
0.8,382.198,44.8106,43.4622,97.7717,35.1679,-544.973,174.127
0.82,380.244,45.001,45.4251,98.1426,18.5453,-831.131,174.751
0.84,378.283,45.1702,47.3933,98.413,13.5169,-251.421,175.395
0.86,376.318,45.3173,49.3646,98.5616,7.43413,-304.139,176.049
0.88,374.348,45.4418,51.3377,98.6559,4.71331,-136.041,176.708
0.9,372.378,45.5438,53.3107,98.6488,-0.353364,-253.333,177.371
0.92,370.405,45.6229,55.2857,98.7532,5.21626,278.481,178.038
0.94,368.429,45.679,57.2619,98.8089,2.78483,-121.572,178.712
0.96,366.545,45.7142,59.1465,94.2305,-228.916,-11585,179.034
0.98,364.71,45.7428,60.9816,91.7519,-123.931,5249.26,179.167
1,362.879,45.7675,62.8129,91.5659,-9.30124,5731.48,179.286
1.02,361.052,45.7886,64.6397,91.3435,-11.1208,-90.9783,179.392
1.04,359.228,45.8064,66.4644,91.2348,-5.43659,284.211,179.486
1.06,357.406,45.8214,68.2862,91.0895,-7.26248,-91.2944,179.569
1.08,355.586,45.8338,70.1056,90.9708,-5.93753,66.2473,179.643
1.1,353.769,45.8441,71.9227,90.8523,-5.9233,0.711759,179.708
1.12,351.955,45.8524,73.7371,90.7209,-6.57054,-32.3621,179.763
1.14,350.143,45.8591,75.5492,90.6028,-5.90601,33.2266,179.809
1.16,348.333,45.8645,77.3594,90.5109,-4.59241,65.6797,179.848
1.18,346.524,45.8688,79.1678,90.4191,-4.58949,0.146173,179.88
1.2,344.718,45.8722,80.974,90.3143,-5.24021,-32.536,179.904
1.22,342.914,45.8749,82.7782,90.2095,-5.23895,0.062842,179.92
1.24,341.112,45.8773,84.5806,90.1179,-4.58255,32.8201,179.929
1.26,339.311,45.8794,86.3811,90.0262,-4.58243,0.00624854,179.931
1.28,337.513,45.8817,88.1796,89.9215,-5.23538,-32.6475,179.925
1.3,335.716,45.8842,89.9764,89.843,-3.92632,65.4526,179.913
1.32,333.921,45.8872,91.7714,89.7514,-4.57958,-32.6628,179.894
1.34,332.128,45.8909,93.5646,89.6599,-4.57823,0.0673634,179.868
1.36,330.336,45.8954,95.3563,89.5814,-3.9218,32.8215,179.836
1.38,328.546,45.9011,97.1461,89.4899,-4.57362,-32.5909,179.797
1.4,326.758,45.9082,98.9343,89.4117,-3.91455,32.9537,179.752
1.42,324.971,45.9166,100.721,89.3465,-3.25733,32.861,179.702
1.44,323.186,45.9267,102.507,89.2684,-3.90491,-32.3794,179.646
1.46,321.401,45.9387,104.291,89.2166,-2.58857,65.8172,179.586
1.48,319.618,45.9526,106.074,89.1781,-1.92906,32.9756,179.523
1.5,317.835,45.9684,107.857,89.1396,-1.92183,0.361433,179.457
1.52,316.053,45.9863,109.64,89.1275,-0.604771,65.8529,179.39
1.54,314.27,46.0064,111.422,89.1286,0.055851,33.0311,179.323
1.56,312.488,46.0285,113.205,89.143,0.719577,33.1863,179.257
1.58,310.705,46.0526,114.988,89.1466,0.179834,-26.9871,179.195
1.6,308.92,46.0786,116.773,89.2634,5.83889,282.953,179.138
1.62,307.133,46.1063,118.56,89.3432,3.99085,-92.4019,179.087
1.64,305.344,46.1355,120.349,89.4491,5.29567,65.2408,179.044
1.66,303.554,46.1661,122.139,89.5049,2.7906,-125.253,179.009
1.68,301.761,46.1974,123.933,89.6865,9.07917,314.429,178.984
1.7,299.965,46.2296,125.73,89.8311,7.23044,-92.4364,178.97
1.72,298.166,46.2621,127.529,89.9492,5.90396,-66.324,178.965
1.74,296.366,46.2946,129.329,90.0301,4.04539,-92.9285,178.97
1.76,294.562,46.3268,131.134,90.2107,9.0311,249.285,178.985
1.78,292.756,46.3585,132.94,90.3018,4.55491,-223.809,179.007
1.8,290.955,46.3893,134.741,90.0558,-12.3047,-842.979,179.037
1.82,289.2,46.4182,136.496,87.7831,-113.632,-5066.37,179.073
1.84,287.502,46.4452,138.194,84.8712,-145.598,-1598.31,179.112
1.86,285.862,46.4701,139.835,82.046,-141.255,217.14,179.153
1.88,284.286,46.4928,141.411,78.8079,-161.905,-1032.5,179.195
1.9,282.766,46.5137,142.931,76.0069,-140.053,1092.62,179.237
1.92,281.309,46.5325,144.388,72.8558,-157.553,-874.982,179.279
1.94,279.907,46.5496,145.79,70.0919,-138.197,967.778,179.32
1.96,278.573,46.565,147.124,66.7149,-168.851,-1532.67,179.359
1.98,277.296,46.5789,148.401,63.8512,-143.185,1283.29,179.397
2,276.077,46.5913,149.62,60.9244,-146.34,-157.786,179.433
2.02,274.92,46.6024,150.777,57.8846,-151.986,-282.271,179.466
2.04,273.821,46.6123,151.876,54.9211,-148.178,190.374,179.498
2.06,272.787,46.6211,152.911,51.7315,-159.482,-565.155,179.527
2.08,271.811,46.6289,153.886,48.7681,-148.168,565.672,179.555
2.1,270.9,46.6358,154.797,45.5785,-159.478,-565.507,179.58
2.12,270.051,46.6419,155.646,42.4391,-156.972,125.3,179.602
2.14,269.263,46.6472,156.435,39.4258,-150.667,315.284,179.623
2.16,268.53,46.6519,157.168,36.6495,-138.814,592.614,179.642
2.18,267.848,46.656,157.849,34.0862,-128.161,532.642,179.66
2.2,267.255,46.6596,158.442,29.6338,-222.623,-4723.08,179.674
2.22,266.693,46.6627,159.005,28.1337,-75.0045,7380.93,179.688
2.24,266.225,46.6651,159.473,23.4074,-236.315,-8065.52,179.7
2.26,265.763,46.6675,159.935,23.0943,-15.6543,11033,179.711
2.28,265.461,46.669,160.237,15.0918,-400.124,-19223.5,179.718
2.3,265.159,46.6705,160.539,15.0918,-4.34562e-08,20006.2,179.725
2.32,264.857,46.6719,160.84,15.0918,-0.00120829,-0.0604122,179.732
2.34,264.627,46.6729,161.071,11.5156,-178.812,-8940.52,179.737
2.36,264.426,46.6738,161.272,10.0656,-72.5004,5315.57,179.742
2.38,264.224,46.6748,161.473,10.0525,-0.654498,3592.29,179.746
2.4,264.023,46.6757,161.674,10.0656,0.654498,65.4498,179.751
2.42,263.822,46.6766,161.875,10.0525,-0.654498,-65.4498,179.755
2.44,263.621,46.6774,162.077,10.0655,0.653436,65.3967,179.76
2.46,263.42,46.6783,162.278,10.0525,-0.653436,-65.3436,179.764
2.48,263.218,46.6791,162.479,10.0655,0.653436,65.3436,179.769
2.5,263.017,46.6799,162.68,10.0524,-0.654498,-65.3967,179.773
2.52,262.816,46.6807,162.881,10.0524,-6.85452e-09,32.7249,179.777
2.54,262.615,46.6814,163.082,10.0655,0.653561,32.678,179.782
2.56,262.414,46.6822,163.284,10.0524,-0.653561,-65.3561,179.786
2.58,262.213,46.6829,163.485,10.0524,-0.000937477,32.6312,179.79
2.6,262.012,46.6836,163.686,10.0524,2.99079e-08,0.0468753,179.794
2.62,261.811,46.6844,163.887,10.0524,0.000937264,0.0468617,179.798
2.64,261.61,46.685,164.088,10.0524,-0.00175005,-0.134366,179.802
2.66,261.409,46.6857,164.289,10.0655,0.655311,32.8531,179.807
2.68,261.207,46.6864,164.49,10.0524,-0.654498,-65.4905,179.811
2.7,261.006,46.6871,164.691,10.0524,-3.65345e-08,32.7249,179.815
2.72,260.805,46.6877,164.892,10.0524,-0.000812472,-0.0406218,179.819
2.74,260.604,46.6883,165.093,10.0524,2.87849e-08,0.040625,179.823
2.76,260.404,46.6889,165.294,10.0393,-0.654498,-32.7249,179.826
2.78,260.203,46.6895,165.495,10.0524,0.654498,65.4498,179.83
2.8,260.001,46.6901,165.696,10.0524,-5.84928e-09,-32.7249,179.834
2.82,259.8,46.6907,165.897,10.0524,-1.87148e-08,-6.43277e-07,179.838
2.84,259.599,46.6912,166.098,10.0524,-0.000687584,-0.0343783,179.842
2.86,259.399,46.6918,166.299,10.0393,-0.653811,-32.6562,179.845
2.88,259.198,46.6923,166.5,10.0524,0.653811,65.3811,179.849
2.9,258.996,46.6929,166.701,10.0524,2.45523e-08,-32.6905,179.853
2.92,258.796,46.6934,166.902,10.0393,-0.654498,-32.7249,179.856
2.94,258.595,46.6939,167.103,10.0524,0.654498,65.4498,179.86
2.96,258.394,46.6944,167.304,10.0393,-0.654498,-65.4498,179.863
2.98,258.193,46.6949,167.505,10.0524,0.654498,65.4498,179.867
3,257.992,46.6954,167.706,10.0393,-0.654498,-65.4498,179.87
3.02,257.791,46.6958,167.907,10.0524,0.653936,65.4217,179.874
3.04,257.59,46.6962,168.107,10.0393,-0.654498,-65.4217,179.877
3.06,257.389,46.6967,168.308,10.0393,0.000562387,32.753,179.88
3.08,257.188,46.6971,168.509,10.0524,0.653936,32.6687,179.884
3.1,256.988,46.6975,168.71,10.0393,-0.654498,-65.4217,179.887
3.12,256.787,46.6979,168.911,10.0393,-2.67422e-09,32.7249,179.89
3.14,256.586,46.6982,169.112,10.0393,-0.000437648,-0.0218823,179.893
3.16,256.385,46.6986,169.312,10.0393,0.000437626,0.0437637,179.896
3.18,256.184,46.699,169.513,10.0393,-1.89535e-08,-0.0218823,179.899
3.2,255.984,46.6993,169.714,10.0393,-0.00043751,-0.0218746,179.902
3.22,255.783,46.6996,169.915,10.0393,2.14203e-08,0.0218766,179.905
3.24,255.582,46.7,170.115,10.0393,0.0004374,0.0218689,179.908
3.26,255.381,46.7003,170.316,10.0393,-0.000437373,-0.0437386,179.911
3.28,255.181,46.7006,170.517,10.0393,5.556e-09,0.0218689,179.914
3.3,254.98,46.7009,170.718,10.0393,4.60076e-11,-2.755e-07,179.917
3.32,254.779,46.7012,170.919,10.0393,-5.33298e-09,-2.68949e-07,179.92
3.34,254.578,46.7014,171.119,10.0262,-0.654811,-32.7406,179.922
3.36,254.378,46.7017,171.32,10.0393,0.654811,65.4811,179.925
3.38,254.177,46.702,171.521,10.0393,-1.95588e-08,-32.7406,179.928
3.4,253.976,46.7022,171.721,10.0262,-0.654811,-32.7405,179.93
3.42,253.776,46.7024,171.922,10.0393,0.654498,65.4655,179.933
3.44,253.575,46.7027,172.123,10.0393,0.000312413,-32.7093,179.936
3.46,253.374,46.7029,172.323,10.0262,-0.654811,-32.7562,179.938
3.48,253.174,46.7031,172.524,10.0262,3.82245e-09,32.7405,179.94
3.5,252.973,46.7033,172.725,10.0393,0.654498,32.7249,179.943
3.52,252.772,46.7035,172.925,10.0262,-0.654498,-65.4498,179.945
3.54,252.572,46.7037,173.126,10.0393,0.654498,65.4498,179.948
3.56,252.371,46.7039,173.326,10.0262,-0.654498,-65.4498,179.95
3.58,252.171,46.704,173.527,10.0262,-0.000187574,32.7155,179.952
3.6,251.97,46.7042,173.728,10.0262,0.000187561,0.0187568,179.954
3.62,251.77,46.7044,173.928,10.0262,-8.93401e-09,-0.0093785,179.956
3.64,251.569,46.7045,174.129,10.0262,-0.000187511,-0.00937509,179.958
3.66,251.368,46.7046,174.329,10.0262,1.05924e-08,0.00937607,179.96
3.68,251.168,46.7048,174.53,10.0262,0.000187464,0.00937266,179.962
3.7,250.967,46.7049,174.73,10.0262,-0.000187447,-0.0187456,179.964
3.72,250.767,46.705,174.931,10.0262,5.91536e-09,0.00937266,179.966
3.74,250.566,46.7051,175.131,10.0262,4.28528e-09,-8.15037e-08,179.968
3.76,250.366,46.7052,175.332,10.0262,2.6664e-09,-8.09441e-08,179.97
3.78,250.165,46.7053,175.532,10.0262,1.085e-09,-7.90701e-08,179.972
3.8,249.965,46.7054,175.733,10.0131,-0.654498,-32.7249,179.973
3.82,249.765,46.7055,175.933,10.0262,0.654498,65.4498,179.975
3.84,249.564,46.7056,176.134,10.0262,-2.80131e-09,-32.7249,179.977
3.86,249.364,46.7057,176.334,10.0131,-0.654498,-32.7249,179.978
3.88,249.163,46.7058,176.534,10.0262,0.654498,65.4498,179.98
3.9,248.963,46.7058,176.735,10.0131,-0.654561,-65.453,179.981
3.92,248.762,46.7059,176.935,10.0262,0.654561,65.4561,179.983
3.94,248.562,46.706,177.135,10.0131,-0.654498,-65.453,179.984
3.96,248.362,46.706,177.336,10.0131,-6.25093e-05,32.7218,179.985
3.98,248.162,46.7061,177.536,10.0131,6.25041e-05,0.00625067,179.986
4,247.961,46.7061,177.736,10.0262,0.654436,32.7187,179.988
4.02,247.761,46.7061,177.937,10.0131,-0.654498,-65.4467,179.989
4.04,247.561,46.7062,178.137,10.0131,6.24804e-05,32.728,179.99
4.06,247.36,46.7062,178.337,10.0131,-6.24762e-05,-0.00624783,179.991
4.08,247.16,46.7062,178.537,10.0131,1.89386e-09,0.00312391,179.992
4.1,246.96,46.7063,178.738,10.0131,6.24626e-05,0.00312303,179.993
4.12,246.76,46.7063,178.938,10.0131,-6.24597e-05,-0.00624612,179.994
4.14,246.56,46.7063,179.138,10,-0.654498,-32.7218,179.994
4.16,246.359,46.7063,179.338,10.0131,0.654498,65.4498,179.995
4.18,246.159,46.7063,179.539,10.0131,1.01572e-09,-32.7249,179.996
4.2,245.959,46.7064,179.739,10,-0.654436,-32.7218,179.996
4.22,245.759,46.7064,179.939,10.0131,0.654436,65.4436,179.997
4.24,245.629,46.7064,180.069,6.5,-175.654,-8815.45,179.997
4.26,245.529,46.7064,180.169,5.01309,-74.3455,5065.45,179.998
4.28,245.429,46.7064,180.269,5,-0.654498,3684.55,179.998
4.3,245.329,46.7064,180.369,5,1.11022e-11,32.7249,179.998
4.32,245.229,46.7064,180.469,5,-1.11022e-11,-1.11022e-09,179.998
4.34,245.129,46.7064,180.569,5,8.21565e-11,4.66294e-09,179.998
4.36,245.028,46.7064,180.669,5.01309,0.654498,32.7249,179.999
4.38,244.928,46.7064,180.769,5,-0.654498,-65.4498,179.999
4.4,244.828,46.7064,180.869,5,-1.11022e-11,32.7249,179.999
4.42,244.728,46.7064,180.969,5,1.11022e-11,1.11022e-09,179.999
