"time","x","y","position","velocity","acceleration","jerk","heading"
0,263.8,10.4045,0,0,0,0,0
0.02,263.83,10.4045,0.0299992,1.49996,74.998,3749.9,-2.98321e-06
0.04,263.92,10.4045,0.119997,4.49988,149.996,3749.9,-1.19328e-05
0.06,264.07,10.4045,0.269993,7.4998,149.996,-4.25615e-06,-2.68489e-05
0.08,264.28,10.4045,0.479988,10.4997,149.996,6.87094e-06,-4.77313e-05
0.1,264.55,10.4045,0.74998,13.4996,149.996,-6.52988e-06,-7.45802e-05
0.12,264.88,10.4045,1.07997,16.4994,149.989,-0.374877,-0.000118851
0.14,265.27,10.4045,1.46994,19.4988,149.967,-1.07774,-0.000213477
0.16,265.72,10.4045,1.91992,22.4986,149.99,1.17146,-0.000322661
0.18,266.23,10.4045,2.42987,25.4976,149.95,-2.0118,-0.000507879
0.2,266.8,10.4045,2.99981,28.4971,149.977,1.35674,-0.000727672
0.22,267.43,10.4045,3.62972,31.4956,149.926,-2.57447,-0.00106071
0.24,268.12,10.4045,4.31961,34.4945,149.945,0.962865,-0.00147757
0.26,268.869,10.4044,5.06947,37.493,149.925,-0.993612,-0.00200864
0.28,269.679,10.4044,5.87929,40.4908,149.886,-1.94324,-0.00271325
0.3,270.549,10.4044,6.74906,43.4887,149.894,0.39975,-0.00357921
0.32,271.479,10.4043,7.67879,46.4863,149.883,-0.559579,-0.00462364
0.34,272.468,10.4042,8.66846,49.4836,149.865,-0.915702,-0.0058745
0.36,273.518,10.4041,9.71807,52.4802,149.831,-1.68664,-0.00738333
0.38,274.628,10.4039,10.8276,55.4764,149.806,-1.24709,-0.00918829
0.4,275.797,10.4037,11.997,58.4724,149.799,-0.359129,-0.0113003
0.42,277.026,10.4035,13.2264,61.4675,149.756,-2.13169,-0.0137845
0.44,278.316,10.4031,14.5156,64.4623,149.741,-0.760267,-0.0166643
0.46,279.665,10.4027,15.8648,67.4562,149.696,-2.25099,-0.0200083
0.48,281.074,10.4021,17.2737,70.4493,149.655,-2.03641,-0.023879
0.5,282.543,10.4015,18.7426,73.4422,149.643,-0.617885,-0.028295
0.52,284.071,10.4007,20.2713,76.4339,149.583,-3.02538,-0.0333491
0.54,285.66,10.3997,21.8598,79.424,149.509,-3.68577,-0.039154
0.56,287.308,10.3984,23.508,82.4134,149.469,-1.98795,-0.0457708
0.58,289.016,10.397,25.2161,85.4022,149.439,-1.48971,-0.0532445
0.6,290.784,10.3952,26.9838,88.3894,149.358,-4.06856,-0.0617005
0.62,292.611,10.3931,28.8113,91.3735,149.209,-7.46457,-0.0713667
0.64,294.498,10.3905,30.6985,94.3575,149.2,-0.441061,-0.0822577
0.66,296.445,10.3875,32.6453,97.3396,149.104,-4.78258,-0.0945194
0.68,298.452,10.384,34.6517,100.32,149.003,-5.05138,-0.108307
0.7,300.518,10.3798,36.7176,103.298,148.898,-5.25855,-0.123783
0.72,302.643,10.3749,38.8431,106.273,148.775,-6.15171,-0.141136
0.74,304.828,10.3692,41.028,109.247,148.68,-4.75967,-0.160514
0.76,307.072,10.3625,43.2724,112.218,148.576,-5.17189,-0.182076
0.78,309.376,10.3547,45.5761,115.188,148.5,-3.81473,-0.205942
0.8,311.739,10.3456,47.9393,118.16,148.585,4.26188,-0.231986
0.82,314.162,10.3353,50.3619,121.128,148.418,-8.38265,-0.260466
0.84,316.644,10.3233,52.8439,124.101,148.636,10.9355,-0.291055
0.86,319.185,10.3097,55.3855,127.078,148.828,9.57654,-0.323463
0.88,321.786,10.2943,57.9867,130.061,149.149,16.0743,-0.357208
0.9,324.447,10.2769,60.6477,133.053,149.597,22.3834,-0.391612
0.92,327.169,10.2574,63.3689,136.058,150.28,34.1548,-0.425635
0.94,329.95,10.236,66.1505,139.078,150.979,34.9324,-0.458213
0.96,332.791,10.2124,68.9917,142.064,149.329,-82.4731,-0.488053
0.98,335.694,10.187,71.8951,145.166,155.084,287.714,-0.513999
1,338.659,10.1599,74.8597,148.233,153.373,-85.5145,-0.53484
1.02,341.655,10.1315,77.8561,149.818,79.2253,-3707.4,-0.549263
1.04,344.653,10.1025,80.8541,149.901,4.12984,-3754.77,-0.557398
1.06,347.653,10.0732,83.8538,149.985,4.20982,3.99931,-0.559112
1.08,350.654,10.044,86.8551,150.065,4.03255,-8.86381,-0.554661
1.1,353.656,10.0152,89.8577,150.131,3.3021,-36.5225,-0.54515
1.12,356.659,9.98694,92.8607,150.147,0.783224,-125.944,-0.530601
1.14,359.664,9.9596,95.8657,150.252,5.23713,222.696,-0.511838
1.16,362.67,9.93335,98.8717,150.299,2.35327,-144.193,-0.489442
1.18,365.677,9.90829,101.878,150.339,2.02625,-16.351,-0.463911
1.2,368.684,9.88473,104.886,150.375,1.76105,-13.2601,-0.435643
1.22,371.692,9.86257,107.894,150.406,1.56383,-9.86094,-0.404945
1.24,374.701,9.84222,110.903,150.436,1.49449,-3.46704,-0.371915
1.26,377.71,9.82356,113.912,150.463,1.34297,-7.57625,-0.336791
1.28,380.72,9.8069,116.922,150.49,1.37915,1.80908,-0.299515
1.3,383.73,9.79215,119.932,150.518,1.37912,-0.00137479,-0.260094
1.32,386.741,9.77961,122.943,150.548,1.5151,6.79907,-0.21832
1.34,389.752,9.76927,125.955,150.58,1.58786,3.63778,-0.174088
1.36,392.765,9.76134,128.967,150.618,1.92893,17.0538,-0.126881
1.38,395.778,9.75591,131.98,150.66,2.09802,8.45415,-0.0764473
1.4,398.792,9.7533,134.995,150.711,2.5078,20.4893,-0.0221677
1.42,401.806,9.7536,138.008,150.671,-1.95829,-223.305,0.0291241
1.44,404.811,9.75591,141.014,150.287,-19.198,-861.986,0.0510802
1.46,407.81,9.7585,144.012,149.923,-18.246,47.5992,0.0451575
1.48,410.803,9.7603,147.005,149.653,-13.4795,238.327,0.0186419
1.5,413.792,9.7603,149.995,149.465,-9.40126,203.912,-0.0222357
1.52,416.779,9.75781,152.982,149.354,-5.54198,192.964,-0.0715848
1.54,419.766,9.75273,155.968,149.33,-1.21444,216.377,-0.122802
1.56,422.754,9.74507,158.956,149.396,3.31071,226.257,-0.168982
1.58,425.745,9.73529,161.947,149.56,8.21356,245.143,-0.202636
1.6,428.742,9.72431,164.944,149.836,13.7954,279.094,-0.215228
1.62,431.747,9.71329,167.949,150.251,20.7541,347.935,-0.19611
1.64,434.763,9.70434,170.965,150.802,27.5592,340.254,-0.134858
1.66,437.793,9.7,173.996,151.524,36.0787,425.972,-0.0184432
1.68,440.842,9.70356,177.044,152.441,45.8695,489.54,0.168059
1.7,443.913,9.71955,180.115,153.532,54.5119,432.123,0.441522
1.72,447.013,9.75316,183.216,155.036,75.1997,1034.39,0.825545
1.74,450.143,9.81098,186.346,156.499,73.1811,-100.93,1.3201
1.76,453.31,9.90092,189.515,158.45,97.5207,1216.98,1.96482
1.78,456.514,10.032,192.722,160.338,94.4346,-154.305,2.75652
1.8,459.759,10.2143,195.971,162.465,106.314,593.944,3.70981
1.82,463.03,10.4576,199.251,164.024,77.9521,-1418.07,4.82999
1.84,466.27,10.766,202.506,162.752,-63.584,-7076.81,6.07473
1.86,469.471,11.1439,205.73,161.158,-79.6783,-804.717,7.42075
1.88,472.62,11.5934,208.91,159.031,-106.374,-1334.8,8.83958
1.9,475.706,12.1131,212.04,156.479,-127.597,-1061.16,10.2888
1.92,478.719,12.6991,215.109,153.452,-151.33,-1186.65,11.7348
1.94,481.647,13.3454,218.108,149.955,-174.878,-1177.36,13.1455
1.96,484.486,14.0439,221.031,146.143,-190.596,-785.895,14.4954
1.98,487.23,14.7863,223.874,142.156,-199.322,-436.337,15.7675
2,489.877,15.5636,226.633,137.952,-210.237,-545.722,16.947
2.02,492.426,16.3671,229.305,133.615,-216.85,-330.659,18.0268
2.04,494.879,17.1895,231.893,129.38,-211.732,255.897,19.0115
2.06,497.239,18.0236,234.396,125.136,-212.193,-23.0653,19.9013
2.08,499.509,18.8637,236.816,121.025,-205.549,332.209,20.7038
2.1,501.69,19.7039,239.153,116.856,-208.475,-146.283,21.4195
2.12,503.786,20.5403,241.41,112.851,-200.249,411.291,22.0583
2.14,505.802,21.3688,243.59,108.968,-194.145,305.19,22.6271
2.16,507.739,22.1863,245.692,105.112,-192.79,67.7577,23.132
2.18,509.599,22.9899,247.718,101.325,-189.345,172.264,23.5786
2.2,511.387,23.7777,249.672,97.6872,-181.899,372.279,23.9746
2.22,513.105,24.5478,251.555,94.1256,-178.078,191.057,24.3254
2.24,514.753,25.2985,253.365,90.5425,-179.156,-53.8995,24.6357
2.26,516.333,26.0281,255.106,87.0532,-174.467,234.455,24.9082
2.28,517.849,26.736,256.779,83.648,-170.259,210.42,25.1478
2.3,519.301,27.4208,258.385,80.2583,-169.485,38.6779,25.358
2.32,520.69,28.082,259.923,76.9042,-167.707,88.9133,25.5429
2.34,522.018,28.7187,261.396,73.6449,-162.962,237.236,25.7046
2.36,523.284,29.3304,262.802,70.3067,-166.911,-197.473,25.8449
2.38,524.491,29.9166,264.144,67.1075,-159.959,347.645,25.9654
2.4,525.639,30.4771,265.421,63.8606,-162.349,-119.504,26.0703
2.42,526.728,31.0113,266.634,60.6653,-159.766,129.147,26.1611
2.44,527.761,31.5192,267.785,57.5162,-157.452,115.69,26.2384
2.46,528.736,32.0004,268.872,54.3711,-157.255,9.83054,26.303
2.48,529.654,32.4547,269.896,51.2042,-158.345,-54.4715,26.3575
2.5,530.515,32.8821,270.858,48.0908,-155.669,133.805,26.4029
2.52,531.321,33.2826,271.758,44.9936,-154.862,40.334,26.4406
2.54,532.071,33.6558,272.596,41.8927,-155.044,-9.11423,26.471
2.56,532.766,34.002,273.372,38.8085,-154.212,41.5993,26.4952
2.58,533.406,34.3212,274.087,35.7802,-151.412,140.016,26.5144
2.6,533.991,34.6132,274.741,32.6642,-155.801,-219.468,26.5289
2.62,534.521,34.878,275.334,29.6511,-150.654,257.379,26.5399
2.64,534.997,35.1159,275.866,26.6068,-152.217,-78.144,26.5486
2.66,535.42,35.3266,276.338,23.5977,-150.457,87.9641,26.5541
2.68,535.787,35.5104,276.748,20.5243,-153.667,-160.494,26.5585
2.7,536.1,35.6673,277.099,17.5339,-149.522,207.239,26.5613
2.72,536.361,35.7971,277.39,14.5421,-149.587,-3.24607,26.5624
2.74,536.567,35.9001,277.62,11.5266,-150.777,-59.4723,26.5634
2.76,536.719,35.9762,277.791,8.50491,-151.085,-15.3965,26.564
2.78,536.817,36.0254,277.9,5.48939,-150.776,15.428,26.5645
2.8,536.862,36.0479,277.951,2.51596,-148.671,105.232,26.5647
2.82,536.865,36.0494,277.954,0.167705,-117.413,1562.93,26.5647
