"time","x","y","position","velocity","acceleration","jerk","heading"
0,528.935,60.58,0,0,150,0,-153.4
0.02,528.78,60.5024,0.173205,3,150,0,-153.4
0.04,528.625,60.4249,0.34641,6,150,0,-153.4
0.06,528.47,60.3473,0.519615,9,150,0,-153.399
0.08,528.315,60.2698,0.69282,12,150,0,-153.399
0.1,528.16,60.1922,0.866025,15,150,0,-153.399
0.12,527.956,60.0898,1.09471,18,150,0,-153.399
0.14,527.582,59.9026,1.51286,21,150,0,-153.398
0.16,527.208,59.7153,1.93102,24,150,0,-153.397
0.18,526.74,59.4806,2.45505,27,150,0,-153.395
0.2,526.252,59.2366,3,30,150,0,-153.393
0.22,525.674,58.9471,3.64641,33,150,0,-153.39
0.24,525.061,58.6398,4.33237,36,150,0,-153.386
0.26,524.399,58.3079,5.07309,39,150,0,-153.381
0.28,523.673,57.9443,5.88465,42,150,0,-153.375
0.3,522.893,57.5533,6.75708,45,150,0,-153.369
0.32,522.062,57.1363,7.68717,48,150,0,-153.361
0.34,521.178,56.6927,8.67644,51,150,0,-153.352
0.36,520.241,56.2222,9.72525,54,150,0,-153.343
0.38,519.25,55.725,10.8333,57,150,0,-153.332
0.4,518.208,55.2012,12,60,150,0,-153.321
0.42,517.106,54.6474,13.2333,63,150,0,-153.309
0.44,515.952,54.0674,14.5243,66,150,0,-153.298
0.46,514.749,53.4617,15.8718,69,150,0,-153.286
0.48,513.488,52.8273,17.2829,72,150,0,-153.276
0.5,512.176,52.1663,18.7525,75,150,0,-153.267
0.52,510.809,51.478,20.2825,78,150,0,-153.26
0.54,509.39,50.763,21.8713,81,150,0,-153.257
0.56,507.916,50.0199,23.5227,84,150,0,-153.259
0.58,506.389,49.251,25.2317,87,150,0,-153.267
0.6,504.81,48.4558,27,90,150,0,-153.283
0.62,503.174,47.6328,28.8312,93,150,0,-153.311
0.64,501.485,46.7843,30.7216,96,150,0,-153.351
0.66,499.742,45.9104,32.6717,99,150,0,-153.408
0.68,497.944,45.0119,34.6816,102,150,0,-153.486
0.7,496.091,44.0895,36.7513,105,150,0,-153.589
0.72,494.183,43.1445,38.8807,108,150,0,-153.724
0.74,492.218,42.1779,41.0704,111,150,0,-153.897
0.76,490.195,41.1912,43.3213,114,150,0,-154.116
0.78,488.114,40.1875,45.6313,117,150,0,-154.388
0.8,485.975,39.1696,48,120,150,0,-154.724
0.82,483.773,38.1393,50.4312,123,150,0,-155.141
0.84,481.51,37.1024,52.9203,126,150,0,-155.643
0.86,479.181,36.0623,55.4711,129,150,0,-156.25
0.88,476.787,35.0258,58.0803,132,150,0,-156.968
0.9,474.322,33.9983,60.7508,135,150,0,-157.803
0.92,471.786,32.9877,63.481,138,150,0,-158.771
0.94,469.176,32.0018,66.2707,141,150,0,-159.868
0.96,466.491,31.049,69.1204,144,150,0,-161.085
0.98,463.727,30.1373,72.0301,147,150,0,-162.411
1,460.886,29.2745,75,150,1.13437e-05,0,-163.822
1.02,457.994,28.4751,78,150,0,0,-165.272
1.04,455.083,27.7491,81,150,0,0,-166.712
1.06,452.156,27.0957,84,150,0,0,-168.115
1.08,449.213,26.5126,87,150,0,0,-169.451
1.1,446.258,25.9963,90,150,0,0,-170.71
1.12,443.292,25.5426,93,150,0,0,-171.872
1.14,440.319,25.1465,96,150,0,0,-172.937
1.16,437.338,24.8033,99,150,0,0,-173.904
1.18,434.353,24.5078,102,150,0,0,-174.776
1.2,431.364,24.2556,105,150,0,0,-175.561
1.22,428.371,24.0421,108,150,0,0,-176.266
1.24,425.376,23.8635,111,150,0,0,-176.896
1.26,422.38,23.7162,114,150,0,0,-177.463
1.28,419.382,23.5969,117,150,0,0,-177.97
1.3,416.384,23.5029,120,150,0,0,-178.428
1.32,413.385,23.4316,123,150,0,0,-178.841
1.34,410.385,23.3809,126,150,0,0,-179.216
1.36,407.385,23.349,129,150,0,0,-179.558
1.38,404.385,23.3343,132,150,0,0,-179.873
1.4,401.385,23.3353,135,150,0,0,179.837
1.42,398.386,23.3511,138,150,0,0,179.565
1.44,395.386,23.3806,141,150,0,0,179.309
1.46,392.386,23.4233,144,150,0,0,179.063
1.48,389.386,23.479,147,150,0,0,178.796
1.5,386.387,23.5493,150,150,0,0,178.528
1.52,383.388,23.6326,153,150,0,0,178.296
1.54,380.39,23.7271,156,150,0,0,178.099
1.56,377.392,23.8312,159,150,0,0,177.934
1.58,374.394,23.943,162,150,0,0,177.798
1.6,371.396,24.0612,165,150,0,0,177.693
1.62,368.399,24.1841,168,150,0,0,177.617
1.64,365.401,24.3102,171,150,0,0,177.571
1.66,362.404,24.4379,174,150,0,0,177.556
1.68,359.407,24.5656,177,150,0,0,177.572
1.7,356.409,24.6916,180,150,0,0,177.62
1.72,353.412,24.8143,183,150,0,0,177.7
1.74,350.414,24.932,186,150,0,0,177.813
1.76,347.416,25.0428,189,150,0,0,177.959
1.78,344.418,25.1453,192,150,0,0,178.133
1.8,341.419,25.2379,195,150,-5.25353e-14,0,178.334
1.82,338.424,25.3193,197.997,149,-150,0,178.556
1.84,335.475,25.3877,200.946,146,-150,0,178.788
1.86,332.586,25.443,203.836,143,-150,0,179.019
1.88,329.756,25.4859,206.666,140,-150,0,179.242
1.9,326.987,25.5174,209.436,137,-150,0,179.449
1.92,324.276,25.539,212.146,134,-150,0,179.635
1.94,321.627,25.552,214.796,131,-150,0,179.797
1.96,319.037,25.5579,217.386,128,-150,0,179.933
1.98,316.506,25.5584,219.916,125,-150,0,-179.957
2,314.037,25.5545,222.385,122,-150,0,-179.87
2.02,311.627,25.5476,224.796,119,-150,0,-179.805
2.04,309.277,25.5385,227.146,116,-150,0,-179.758
2.06,306.987,25.5281,229.435,113,-150,0,-179.727
2.08,304.757,25.517,231.665,110,-150,0,-179.708
2.1,302.587,25.5058,233.836,107,-150,0,-179.7
2.12,300.476,25.4946,235.946,104,-150,0,-179.7
2.14,298.426,25.484,237.997,101,-150,0,-179.705
2.16,296.436,25.4739,239.987,98,-150,0,-179.716
2.18,294.507,25.4646,241.916,95,-150,0,-179.731
2.2,292.638,25.4561,243.785,92,-150,0,-179.748
2.22,290.828,25.4484,245.594,89,-150,0,-179.766
2.24,289.078,25.4415,247.344,86,-150,0,-179.785
2.26,287.387,25.4355,249.036,83,-150,0,-179.804
2.28,285.759,25.4302,250.664,80,-150,0,-179.823
2.3,284.188,25.4256,252.234,77,-150,0,-179.842
2.32,282.679,25.4216,253.744,74,-150,0,-179.859
2.34,281.229,25.4183,255.194,71,-150,0,-179.876
2.36,279.84,25.4155,256.583,68,-150,0,-179.892
2.38,278.508,25.4131,257.915,65,-150,0,-179.906
2.4,277.239,25.4112,259.184,62,-150,0,-179.92
2.42,276.031,25.4097,260.391,59,-150,0,-179.932
2.44,274.882,25.4084,261.541,56,-150,0,-179.943
2.46,273.792,25.4074,262.631,53,-150,0,-179.952
2.48,272.763,25.4066,263.66,50,-150,0,-179.961
2.5,271.794,25.406,264.629,47,-150,0,-179.968
2.52,270.886,25.4056,265.537,44,-150,0,-179.974
2.54,270.037,25.4053,266.386,41,-150,0,-179.98
2.56,269.244,25.405,267.178,38,-150,0,-179.984
2.58,268.511,25.4048,267.912,35,-150,0,-179.988
2.6,267.854,25.4047,268.569,32,-150,0,-179.991
2.62,267.241,25.4046,269.182,29,-150,0,-179.993
2.64,266.696,25.4046,269.727,26,-150,0,-179.995
2.66,266.215,25.4045,270.208,23,-150,0,-179.997
2.68,265.796,25.4045,270.627,20,-150,0,-179.998
2.7,265.404,25.4045,271.019,17,-150,0,-179.998
2.72,265.231,25.4045,271.192,14,-150,0,-179.999
2.74,265.058,25.4045,271.365,11,-150,0,-179.999
2.76,264.885,25.4045,271.538,8,-150,0,-179.999
2.78,264.712,25.4045,271.711,5,-150,0,-179.999
2.8,264.538,25.4045,271.885,2,-150,0,-179.999
