"time","x","y","position","velocity","acceleration","jerk","heading"
0,425.468,41.4319,0,0,0,0,180
0.02,425.296,41.4319,0.172476,8.62382,431.191,21559.6,179.998
0.04,425.123,41.4319,0.344953,8.62382,1.56808e-09,-21559.6,179.996
0.06,424.951,41.4319,0.517429,8.62382,3.27818e-09,8.55049e-08,179.994
0.08,424.778,41.4319,0.689906,8.62382,4.70397e-09,7.12896e-08,179.992
0.1,424.605,41.432,0.863382,8.67382,2.50007,125.004,179.99
0.12,424.378,41.432,1.09007,11.3346,133.036,6526.82,179.985
0.14,423.963,41.4321,1.50467,20.7298,469.764,16836.4,179.972
0.16,423.548,41.4324,1.92027,20.7798,2.50024,-23363.2,179.959
0.18,423.031,41.4328,2.43746,25.8597,253.992,12574.6,179.933
0.2,422.493,41.4336,2.97513,26.8835,51.1921,-10140,179.905
0.22,421.859,41.4348,3.60935,31.711,241.375,9509.14,179.86
0.24,421.187,41.4367,4.28095,33.5802,93.4595,-7395.77,179.805
0.26,420.464,41.4395,5.00442,36.1733,129.653,1809.67,179.738
0.28,419.676,41.4437,5.79239,39.3987,161.27,1580.85,179.65
0.3,418.831,41.4495,6.63688,42.2242,141.279,-999.563,179.541
0.32,417.935,41.4576,7.53288,44.8002,128.799,-623.988,179.411
0.34,416.988,41.4686,8.48058,47.3851,129.246,22.3768,179.253
0.36,415.989,41.4831,9.47974,49.9577,128.628,-30.9193,179.066
0.38,414.939,41.5021,10.5293,52.477,125.964,-133.21,178.842
0.4,413.84,41.5266,11.6282,54.948,123.552,-120.597,178.581
0.42,412.688,41.558,12.7816,57.6674,135.968,620.807,178.275
0.44,411.49,41.5975,13.9793,59.8882,111.043,-1246.23,177.92
0.46,410.25,41.6467,15.2209,62.0777,109.473,-78.5016,177.517
0.48,408.962,41.7075,16.5105,64.4787,120.05,528.821,177.051
0.5,407.631,41.7819,17.8428,66.6185,106.989,-653.05,176.528
0.52,406.256,41.8721,19.2213,68.922,115.179,409.512,175.948
0.54,404.838,41.9804,20.6434,71.1056,109.176,-300.168,175.312
0.56,403.369,42.1096,22.1183,73.7446,131.95,1138.73,174.638
0.58,401.847,42.2618,23.6477,76.4683,136.189,211.933,173.95
0.6,400.262,42.4394,25.2421,79.7213,162.649,1322.99,173.287
0.62,398.628,42.6408,26.8887,82.331,130.486,-1608.14,172.703
0.64,396.961,42.8618,28.5704,84.0871,87.8041,-2134.1,172.249
0.66,395.251,43.0997,30.2968,86.3176,111.522,1185.87,171.967
0.68,393.5,43.3498,32.066,88.4588,107.06,-223.061,171.849
0.7,391.702,43.6071,33.8816,90.7828,116.202,457.066,171.912
0.72,389.859,43.8659,35.7434,93.0872,115.22,-49.0719,172.146
0.74,387.983,44.1195,37.6365,94.6585,78.5652,-1832.75,172.501
0.76,386.078,44.363,39.557,96.0239,68.2716,-514.682,172.963
0.78,384.15,44.5922,41.4985,97.0721,52.4097,-793.094,173.501
0.8,382.207,44.8037,43.4525,97.7018,31.4817,-1046.4,174.091
0.82,380.254,44.9953,45.4155,98.148,22.3106,-458.557,174.715
0.84,378.291,45.1657,47.3851,98.4806,16.6316,-283.951,175.36
0.86,376.326,45.3141,49.3559,98.5421,3.07387,-677.886,176.016
0.88,374.355,45.4398,51.3307,98.7376,9.77671,335.142,176.681
0.9,372.384,45.5427,53.3052,98.7292,-0.421134,-509.892,177.35
0.92,370.408,45.6225,55.2824,98.8591,6.49477,345.795,178.025
0.94,368.43,45.6789,57.261,98.927,3.39322,-155.077,178.708
0.96,366.549,45.7142,59.1427,94.0867,-242.011,-12270.2,179.019
0.98,364.719,45.7437,60.9725,91.4908,-129.795,5610.79,179.132
1,362.893,45.7697,62.7987,91.3074,-9.17363,6031.07,179.235
1.02,361.069,45.7925,64.6232,91.2244,-4.14877,251.243,179.328
1.04,359.247,45.8125,66.4455,91.1181,-5.31529,-58.3259,179.413
1.06,357.427,45.8298,68.2658,91.012,-5.30517,0.506136,179.49
1.08,355.608,45.8449,70.0841,90.9194,-4.63038,33.7398,179.56
1.1,353.791,45.8578,71.9009,90.84,-3.96738,33.1495,179.624
1.12,351.977,45.8688,73.7156,90.7347,-5.26726,-64.9936,179.68
1.14,350.163,45.878,75.529,90.6688,-3.29622,98.5518,179.731
1.16,348.352,45.8859,77.3408,90.5899,-3.94352,-32.3649,179.776
1.18,346.541,45.8923,79.151,90.5111,-3.9408,0.136104,179.815
1.2,344.733,45.8975,80.9599,90.4454,-3.28216,32.9319,179.849
1.22,342.925,45.9019,82.7673,90.3668,-3.93293,-32.5385,179.877
1.24,341.119,45.9054,84.5736,90.3143,-2.62233,65.53,179.901
1.26,339.314,45.9082,86.3783,90.2357,-3.93005,-65.3863,179.919
1.28,337.511,45.9105,88.1819,90.1833,-2.61976,65.5144,179.933
1.3,335.708,45.9124,89.984,90.1048,-3.92816,-65.4196,179.941
1.32,333.907,45.9142,91.7851,90.0524,-2.61825,65.4953,179.945
1.34,332.108,45.9159,93.5848,89.987,-3.27274,-32.7242,179.944
1.36,330.309,45.9178,95.3833,89.9215,-3.27199,0.0371529,179.938
1.38,328.512,45.9198,97.1806,89.8692,-2.61772,32.7135,179.928
1.4,326.716,45.9223,98.9767,89.8037,-3.27093,-32.6603,179.913
1.42,324.921,45.9254,100.771,89.7383,-3.27016,0.0385434,179.893
1.44,323.127,45.9291,102.565,89.686,-2.61516,32.7499,179.869
1.46,321.335,45.9335,104.358,89.6338,-2.61344,0.0861121,179.841
1.48,319.543,45.939,106.15,89.5815,-2.61105,0.119444,179.809
1.5,317.752,45.9455,107.94,89.5424,-1.95516,32.7944,179.774
1.52,315.962,45.9531,109.73,89.4903,-2.60616,-32.5499,179.735
1.54,314.173,45.962,111.519,89.4644,-1.29516,65.5498,179.694
1.56,312.384,45.9722,113.308,89.4386,-1.29033,0.241659,179.651
1.58,310.596,45.9837,115.097,89.4259,-0.634728,32.7801,179.607
1.6,308.808,45.9968,116.885,89.4133,-0.62877,0.297904,179.562
1.62,307.051,46.0109,118.642,87.8269,-79.3221,-3934.67,179.518
1.64,305.353,46.0258,120.34,84.9166,-145.514,-3309.62,179.477
1.66,303.712,46.0413,121.981,82.0563,-143.017,124.884,179.439
1.68,302.132,46.0573,123.561,79.009,-152.362,-467.276,179.405
1.7,300.61,46.0735,125.083,76.0986,-145.523,341.95,179.374
1.72,299.148,46.0898,126.545,73.1142,-149.216,-184.618,179.348
1.74,297.742,46.1061,127.951,70.2667,-142.375,342.011,179.326
1.76,296.399,46.1221,129.294,67.1692,-154.877,-625.076,179.308
1.78,295.112,46.1379,130.582,64.3716,-139.881,749.818,179.294
1.8,293.882,46.1531,131.812,61.5108,-143.041,-158.012,179.283
1.82,292.718,46.1678,132.976,58.213,-164.888,-1092.34,179.276
1.84,291.611,46.1819,134.083,55.339,-143.698,1059.46,179.271
1.86,290.563,46.1953,135.131,52.415,-146.201,-125.148,179.268
1.88,289.574,46.2079,136.12,49.454,-148.05,-92.4243,179.268
1.9,288.643,46.2198,137.051,46.5169,-146.856,59.6995,179.269
1.92,287.77,46.2309,137.924,43.6797,-141.859,249.82,179.271
1.94,286.958,46.2412,138.736,40.6056,-153.704,-592.224,179.275
1.96,286.216,46.2506,139.478,37.1053,-175.014,-1065.53,179.279
1.98,285.528,46.2592,140.166,34.3681,-136.86,1907.73,179.284
2,284.881,46.2673,140.813,32.3549,-100.662,1809.87,179.288
2.02,284.28,46.2748,141.414,30.0808,-113.704,-652.078,179.294
2.04,283.679,46.2822,142.016,30.0677,-0.654498,5652.47,179.299
2.06,283.077,46.2895,142.617,30.0808,0.651436,65.2967,179.305
2.08,282.475,46.2967,143.219,30.0938,0.651478,0.0020821,179.312
2.1,281.873,46.3039,143.821,30.0938,4.96385e-09,-32.5739,179.319
2.12,281.271,46.3111,144.423,30.0937,-0.00297895,-0.148948,179.326
2.14,280.669,46.3181,145.025,30.1068,0.651561,32.727,179.334
2.16,280.067,46.3251,145.627,30.1068,-3.07951e-08,-32.5781,179.342
2.18,279.465,46.3319,146.23,30.1197,0.648749,32.4374,179.351
2.2,278.863,46.3388,146.832,30.1197,-4.97167e-09,-32.4374,179.36
2.22,278.26,46.3454,147.435,30.1196,-0.00558299,-0.279149,179.369
2.24,277.658,46.352,148.037,30.1327,0.654498,33.0041,179.379
2.26,277.055,46.3584,148.64,30.1195,-0.659915,-65.7207,179.388
2.28,276.453,46.3649,149.242,30.1326,0.654498,65.7207,179.398
2.3,275.851,46.3711,149.844,30.0825,-2.50512,-157.981,179.408
2.32,275.248,46.3773,150.447,30.1456,3.15436,282.974,179.419
2.34,274.645,46.3834,151.049,30.1324,-0.659582,-190.697,179.429
2.36,274.043,46.3893,151.652,30.1454,0.652019,65.58,179.44
2.38,273.44,46.3951,152.255,30.1454,-0.00243738,-32.7228,179.451
2.4,272.837,46.4008,152.858,30.1453,-0.00239572,0.0020828,179.462
2.42,272.234,46.4065,153.461,30.1453,-0.00235407,0.00208282,179.473
2.44,271.631,46.412,154.064,30.1583,0.652186,32.727,179.485
2.46,271.028,46.4173,154.667,30.1452,-0.658998,-65.5592,179.496
2.48,270.425,46.4225,155.27,30.1451,-0.00218741,32.8405,179.507
2.5,269.822,46.4277,155.873,30.1582,0.652353,32.727,179.519
2.52,269.219,46.4327,156.476,30.145,-0.656603,-65.4478,179.53
2.54,268.616,46.4376,157.079,30.1581,0.652436,65.4519,179.542
2.56,268.013,46.4423,157.682,30.1449,-0.658498,-65.5467,179.553
2.58,267.41,46.447,158.285,30.158,0.652561,65.553,179.565
2.6,266.807,46.4515,158.888,30.1579,-0.00189578,-32.7228,179.577
2.62,266.204,46.4559,159.491,30.1448,-0.656353,-32.7228,179.588
2.64,265.601,46.4601,160.095,30.1578,0.650915,65.3634,179.6
2.66,264.998,46.4644,160.697,30.1447,-0.654498,-65.2707,179.611
2.68,264.395,46.4684,161.3,30.1447,-0.00341654,32.5541,179.622
2.7,263.792,46.4723,161.903,30.1577,0.652853,32.8135,179.634
2.72,263.189,46.476,162.506,30.1446,-0.657665,-65.5259,179.645
2.74,262.586,46.4797,163.109,30.1446,4.02805e-08,32.8833,179.656
2.76,261.983,46.4832,163.712,30.1445,-0.00299995,-0.15,179.667
2.78,261.38,46.4868,164.315,30.1445,-2.93442e-08,0.149996,179.678
2.8,260.777,46.4901,164.918,30.1444,-0.00283324,-0.141661,179.689
2.82,260.175,46.4933,165.521,30.1444,-0.00135414,0.0739548,179.7
2.84,259.572,46.4964,166.124,30.1444,-0.00131248,0.00208302,179.711
2.86,258.969,46.4993,166.726,30.1313,-0.656998,-32.7843,179.721
2.88,258.366,46.5022,167.329,30.1443,0.654499,65.5748,179.732
2.9,257.764,46.505,167.932,30.1312,-0.655686,-65.5092,179.742
2.92,257.161,46.5077,168.534,30.1312,-0.00224998,32.6718,179.752
2.94,256.558,46.5103,169.137,30.1312,-5.57954e-09,0.112499,179.762
2.96,255.956,46.5127,169.74,30.1311,-0.0020833,-0.104165,179.772
2.98,255.353,46.515,170.342,30.1311,-0.000979156,0.0552073,179.782
3,254.751,46.5173,170.945,30.118,-0.654498,-32.676,179.791
3.02,254.148,46.5194,171.547,30.1311,0.652665,65.3582,179.801
3.04,253.546,46.5214,172.15,30.118,-0.655353,-65.4009,179.81
3.06,252.943,46.5234,172.752,30.118,-1.56934e-08,32.7676,179.819
3.08,252.341,46.5252,173.354,30.1179,-0.00158332,-0.0791651,179.828
3.1,251.739,46.527,173.956,30.1049,-0.654498,-32.6458,179.836
3.12,251.137,46.5287,174.559,30.1179,0.653769,65.4134,179.845
3.14,250.534,46.5303,175.161,30.1048,-0.655832,-65.4801,179.853
3.16,249.932,46.5318,175.763,30.1048,4.78252e-08,32.7916,179.861
3.18,249.33,46.5332,176.365,30.1048,-0.000604166,-0.0302107,179.869
3.2,248.728,46.5346,176.967,30.1048,-3.42528e-08,0.0302066,179.877
3.22,248.126,46.5358,177.569,30.1048,-0.00108331,-0.0541638,179.885
3.24,247.524,46.537,178.171,30.0917,-0.654498,-32.6708,179.892
3.26,246.922,46.5381,178.773,30.0917,-0.000479159,32.701,179.899
3.28,246.321,46.5391,179.375,30.0917,-0.000437502,0.00208285,179.906
3.3,245.719,46.54,179.977,30.0917,-0.000395844,0.00208288,179.913
3.32,245.117,46.5409,180.578,30.0786,-0.654498,-32.7051,179.919
3.34,244.515,46.5417,181.18,30.0917,0.654144,65.4321,179.926
3.36,243.914,46.5425,181.782,30.0786,-0.654498,-65.4321,179.932
3.38,243.312,46.5432,182.383,30.0655,-0.654811,-0.0156234,179.937
3.4,242.711,46.5438,182.984,30.0786,0.654228,65.4519,179.943
3.42,242.11,46.5444,183.586,30.0655,-0.654498,-65.4363,179.948
3.44,241.508,46.5449,184.187,30.0786,0.654269,65.4384,179.954
3.46,240.907,46.5453,184.788,30.0524,-1.30918,-98.1727,179.958
3.48,240.306,46.5457,185.39,30.0655,0.654498,98.1841,179.963
3.5,239.704,46.5461,185.991,30.0655,-6.05809e-09,-32.7249,179.968
3.52,239.103,46.5464,186.592,30.0524,-0.654644,-32.7322,179.972
3.54,238.502,46.5467,187.193,30.0524,-2.06644e-09,32.7322,179.976
3.56,237.901,46.5469,187.794,30.0393,-0.654603,-32.7301,179.979
3.58,237.301,46.5471,188.395,30.0393,3.31397e-09,32.7301,179.982
3.6,236.7,46.5473,188.996,30.0524,0.654498,32.7249,179.986
3.62,236.099,46.5474,189.596,30.0262,-1.30906,-98.1779,179.988
3.64,235.498,46.5475,190.197,30.0393,0.654498,98.1779,179.991
3.66,234.898,46.5476,190.798,30.0262,-0.654498,-65.4498,179.993
3.68,234.334,46.5477,191.361,28.1762,-92.5,-4592.28,179.995
3.7,233.789,46.5477,191.906,27.2631,-45.6545,2342.27,179.996
3.72,233.349,46.5477,192.347,22.0131,-262.5,-10842.3,179.997
3.74,232.931,46.5477,192.765,20.9131,-55,10375,179.998
3.76,232.62,46.5478,193.075,15.5131,-270,-10750,179.999
3.78,232.447,46.5478,193.248,8.65,-343.155,-3657.73,179.999
3.8,232.273,46.5478,193.422,8.7,2.5,17282.7,179.999
3.82,232.1,46.5478,193.595,8.65,-2.5,-250,179.999
3.84,231.927,46.5478,193.768,8.65,0,125,179.999
3.86,231.754,46.5478,193.941,8.66309,0.654498,32.7249,180
