"time","x","y","position","velocity","acceleration","jerk","heading"
0,425.468,41.4319,0,0,0,0,180
0.02,425.295,41.4319,0.172738,8.63691,431.846,21592.3,179.999
0.04,425.123,41.4319,0.345476,8.63691,1.42375e-10,-21592.3,179.998
0.06,424.95,41.4319,0.518215,8.63691,4.27036e-10,1.42331e-08,179.997
0.08,424.777,41.4319,0.690953,8.63691,5.69145e-10,7.10543e-09,179.996
0.1,424.603,41.4319,0.864691,8.68691,2.5,125,179.995
0.12,424.376,41.4319,1.09243,11.3869,135,6625,179.994
0.14,423.958,41.432,1.50964,20.8607,473.691,16934.6,179.991
0.16,423.54,41.432,1.9276,20.8976,1.84547,-23592.3,179.987
0.18,423.018,41.4322,2.44976,26.1084,260.537,12934.6,179.98
0.2,422.476,41.4324,2.99241,27.1322,51.191,-10467.3,179.971
0.22,421.833,41.4328,3.635,32.1298,249.882,9934.56,179.958
0.24,421.151,41.4333,4.31682,34.0906,98.0367,-7592.28,179.942
0.26,420.415,41.4342,5.05284,36.8013,135.537,1875.04,179.923
0.28,419.611,41.4354,5.85677,40.1966,169.765,1711.37,179.896
0.3,418.746,41.4372,6.72166,43.2443,152.384,-869.022,179.865
0.32,417.827,41.4396,7.64119,45.9766,136.613,-788.558,179.825
0.34,416.863,41.4429,8.60489,48.1851,110.424,-1309.46,179.778
0.36,415.881,41.4471,9.58677,49.0936,45.4278,-3249.81,179.724
0.38,414.897,41.4523,10.5708,49.2022,5.43042,-1999.87,179.663
0.4,413.915,41.4586,11.553,49.1109,-4.5654,-499.791,179.595
0.42,412.935,41.4662,12.5334,49.0197,-4.55858,0.341234,179.52
0.44,411.956,41.475,13.512,48.9286,-4.55435,0.211257,179.438
0.46,410.979,41.4853,14.489,48.8509,-3.88779,33.328,179.35
0.48,410.004,41.4971,15.4642,48.7601,-4.53893,-32.5568,179.255
0.5,409.031,41.5107,16.4376,48.6697,-4.52299,0.796759,179.153
0.52,408.058,41.5259,17.4102,48.6317,-1.8969,131.305,179.048
0.54,407.086,41.5429,18.3821,48.5939,-1.8888,0.404859,178.94
0.56,406.115,41.5618,19.3538,48.5826,-0.566876,66.0965,178.831
0.58,405.144,41.5826,20.3253,48.5739,-0.433954,6.6461,178.725
0.6,404.17,41.6052,21.2988,48.6783,5.21774,282.585,178.623
0.62,403.195,41.6295,22.2745,48.785,5.33817,6.0212,178.529
0.64,402.218,41.6553,23.2521,48.881,4.79651,-27.083,178.446
0.66,401.236,41.6826,24.2342,49.103,11.1024,315.296,178.376
0.68,400.25,41.7111,25.2205,49.314,10.5499,-27.6258,178.322
0.7,399.261,41.7405,26.21,49.4747,8.03165,-125.913,178.284
0.72,398.267,41.7706,27.2041,49.7088,11.7069,183.76,178.26
0.74,397.271,41.801,28.201,49.8424,6.67933,-251.376,178.25
0.76,396.27,41.8316,29.2028,50.0889,12.3239,282.231,178.255
0.78,395.267,41.8621,30.2064,50.1824,4.6778,-382.307,178.271
0.8,394.26,41.8924,31.2134,50.3499,8.37424,184.822,178.296
0.82,393.253,41.922,32.2212,50.3905,2.03053,-317.186,178.328
0.84,392.243,41.9512,33.2313,50.5052,5.73499,185.223,178.365
0.86,391.232,41.9797,34.2427,50.5697,3.22255,-125.622,178.407
0.88,390.221,42.0074,35.2536,50.5447,-1.24564,-223.41,178.451
0.9,389.209,42.0344,36.266,50.62,3.76074,250.319,178.497
0.92,388.197,42.0606,37.2784,50.6188,-0.0590421,-190.989,178.543
0.94,387.186,42.0859,38.2898,50.5678,-2.55,-124.548,178.589
0.96,386.175,42.1104,39.3018,50.6038,1.8016,217.58,178.634
0.98,385.163,42.1341,40.3136,50.5896,-0.708146,-125.487,178.678
1,384.153,42.1571,41.3241,50.5258,-3.19418,-124.302,178.721
1.02,383.142,42.1792,42.3351,50.5487,1.14577,216.998,178.762
1.04,382.132,42.2007,43.3455,50.5218,-1.34139,-124.358,178.801
1.06,381.122,42.2215,44.3554,50.4949,-1.34565,-0.213103,178.838
1.08,380.113,42.2416,45.3648,50.468,-1.34443,0.0612067,178.873
1.1,379.106,42.2612,46.3724,50.3783,-4.48758,-157.158,178.905
1.12,378.099,42.2801,47.3796,50.3623,-0.801608,184.299,178.932
1.14,377.096,42.2986,48.3824,50.1395,-11.1405,-516.943,178.942
1.16,376.095,42.3172,49.3834,50.0478,-4.58149,327.948,178.945
1.18,375.094,42.3355,50.3846,50.0607,0.6453,261.339,178.949
1.2,374.094,42.3538,51.3848,50.0107,-2.49958,-157.244,178.953
1.22,373.093,42.3721,52.386,50.0607,2.49958,249.958,178.957
1.24,372.092,42.3903,53.3872,50.0606,-0.00456174,-125.207,178.961
1.26,371.091,42.4084,54.3887,50.0735,0.64545,32.5006,178.966
1.28,370.09,42.4265,55.3899,50.0605,-0.649987,-64.7718,178.97
1.3,369.088,42.4444,56.3914,50.0735,0.6455,64.7743,178.975
1.32,368.088,42.4622,57.3918,50.0234,-2.50407,-157.478,178.98
1.34,367.087,42.48,58.3933,50.0734,2.4996,250.183,178.985
1.36,366.085,42.4978,59.395,50.0864,0.650062,-92.4771,178.991
1.38,365.084,42.5153,60.3965,50.0731,-0.663297,-65.6679,178.996
1.4,364.082,42.5328,61.3982,50.0862,0.654498,65.8898,179.002
1.42,363.08,42.5502,62.4002,50.0991,0.6458,-0.434935,179.009
1.44,362.079,42.5675,63.4019,50.086,-0.654498,-65.0149,179.015
1.46,361.078,42.5846,64.4029,50.0489,-1.85373,-59.9618,179.022
1.48,360.076,42.6016,65.4049,50.0989,2.49537,217.455,179.029
1.5,359.074,42.6186,66.4069,50.0988,-0.00423689,-124.98,179.036
1.52,358.073,42.6354,67.4088,50.0987,-0.0042119,0.00124937,179.043
1.54,357.07,42.652,68.4111,50.1116,0.64615,32.5181,179.051
1.56,356.068,42.6686,69.4133,50.1115,-0.00413693,-32.5143,179.059
1.58,355.066,42.685,70.4155,50.1114,-0.00411195,0.00124907,179.067
1.6,354.065,42.7012,71.417,50.0744,-1.85332,-92.4605,179.076
1.62,353.063,42.7173,72.4195,50.1242,2.49162,217.247,179.085
1.64,352.06,42.7332,73.422,50.1241,-0.00398699,-124.78,179.094
1.66,351.058,42.7491,74.4247,50.1371,0.650536,32.7262,179.104
1.68,350.055,42.7646,75.4275,50.1369,-0.0117361,-33.1136,179.114
1.7,349.052,42.78,76.4302,50.1368,-0.00386203,0.393701,179.124
1.72,348.05,42.7953,77.4329,50.1367,-0.0076491,-0.189354,179.134
1.74,347.047,42.8103,78.4359,50.1496,0.646949,32.7299,179.145
1.76,346.044,42.8252,79.4392,50.1626,0.647049,0.00499836,179.157
1.78,345.042,42.8398,80.4412,50.0993,-3.16158,-190.432,179.168
1.8,344.038,42.8544,81.4447,50.1754,3.80509,348.334,179.181
1.82,343.035,42.8685,82.4479,50.162,-0.668797,-223.695,179.193
1.84,342.032,42.8826,83.4514,50.1751,0.650986,65.9892,179.206
1.86,341.028,42.8964,84.4549,50.1749,-0.00694934,-32.8968,179.219
1.88,340.025,42.91,85.4587,50.1878,0.644262,32.5606,179.233
1.9,339.021,42.9232,86.4624,50.1876,-0.0100116,-32.7137,179.247
1.92,338.017,42.9363,87.4664,50.2006,0.647949,32.898,179.262
1.94,337.013,42.9491,88.4704,50.2004,-0.00644947,-32.7199,179.277
1.96,336.009,42.9617,89.4744,50.2003,-0.00948673,-0.151863,179.292
1.98,335.005,42.9739,90.4787,50.2132,0.645237,32.7362,179.308
2,334.002,42.9859,91.482,50.163,-2.50886,-157.705,179.324
2.02,332.998,42.9976,92.4865,50.226,3.14842,282.864,179.341
2.04,331.993,43.009,93.491,50.2257,-0.0114992,-157.996,179.358
2.06,330.988,43.0201,94.4958,50.2387,0.648899,33.0199,179.376
2.08,329.984,43.0309,95.5005,50.2385,-0.0108993,-32.9899,179.394
2.1,328.979,43.0413,96.5056,50.2514,0.646586,32.8743,179.413
2.12,327.974,43.0515,97.5103,50.2382,-0.662186,-65.4386,179.431
2.14,326.969,43.0613,98.5156,50.2642,1.30153,98.186,179.451
2.16,325.964,43.0708,99.5206,50.2509,-0.664098,-98.2816,179.47
2.18,324.959,43.0799,100.526,50.2639,0.647561,65.583,179.49
2.2,323.953,43.0887,101.531,50.2637,-0.00889965,-32.823,179.51
2.22,322.948,43.0971,102.537,50.2767,0.648086,32.8493,179.531
2.24,321.942,43.1051,103.542,50.2765,-0.00819972,-32.8143,179.552
2.26,320.937,43.1128,104.548,50.2763,-0.00779977,0.0199973,179.573
2.28,319.931,43.1201,105.553,50.2762,-0.00558734,0.110621,179.594
2.3,318.926,43.1271,106.559,50.2761,-0.00709981,-0.0756236,179.615
2.32,317.92,43.1336,107.565,50.289,0.647799,32.7449,179.637
2.34,316.915,43.1398,108.57,50.2759,-0.659261,-65.353,179.658
2.36,315.909,43.1457,109.576,50.2757,-0.00599988,32.663,179.679
2.38,314.903,43.1511,110.581,50.2887,0.648899,32.7449,179.701
2.4,313.898,43.1561,111.587,50.2755,-0.659698,-65.4298,179.722
2.42,312.892,43.1608,112.592,50.2754,-0.00363746,32.803,179.743
2.44,311.887,43.1652,113.598,50.2754,-0.00449995,-0.0431246,179.764
2.46,310.882,43.1691,114.603,50.2622,-0.658598,-32.7049,179.784
2.48,309.876,43.1727,115.608,50.2621,-0.00281247,32.7893,179.804
2.5,308.871,43.1759,116.614,50.2621,-0.00339999,-0.0293763,179.824
2.52,307.866,43.1788,117.619,50.2489,-0.656786,-32.6693,179.843
2.54,306.861,43.1815,118.624,50.2489,-0.0020625,32.7362,179.862
2.56,305.856,43.1838,119.628,50.2358,-0.656336,-32.7137,179.88
2.58,304.852,43.1857,120.633,50.2357,-0.00209999,32.7118,179.898
2.6,303.848,43.1873,121.637,50.2095,-1.31031,-65.4105,179.914
2.62,302.843,43.1887,122.641,50.2095,-0.000749998,65.478,179.93
2.64,301.839,43.1898,123.646,50.2095,-0.000937493,-0.00937475,179.946
2.66,300.835,43.1906,124.649,50.1833,-1.30971,-65.4386,179.96
2.68,299.832,43.1911,125.653,50.1833,-0.000487525,65.4611,179.974
2.7,298.828,43.1915,126.656,50.1702,-0.654611,-32.7062,179.987
2.72,297.825,43.1916,127.659,50.1571,-0.654686,-0.00374993,179.999
2.74,296.822,43.1915,128.662,50.144,-0.654498,0.00937431,-179.99
2.76,295.82,43.1912,129.665,50.144,9.99987e-05,32.7299,-179.979
2.78,294.817,43.1908,130.668,50.1309,-0.654411,-32.7255,-179.969
2.8,293.815,43.1901,131.67,50.1047,-1.30858,-32.7087,-179.961
2.82,292.812,43.1894,132.672,50.1178,0.654498,98.1541,-179.952
2.84,291.823,43.1885,133.662,49.4917,-31.3086,-1598.15,-179.945
2.86,290.871,43.1875,134.614,47.5786,-95.6542,-3217.28,-179.939
2.88,289.976,43.1865,135.509,44.7655,-140.654,-2250.01,-179.934
2.9,289.139,43.1855,136.345,41.8155,-147.5,-342.274,-179.929
2.92,288.358,43.1845,137.127,39.0893,-136.309,559.55,-179.926
2.94,287.644,43.1836,137.841,35.6893,-170,-1684.56,-179.923
2.96,286.998,43.1827,138.487,32.2893,-170,0.0165086,-179.92
2.98,286.39,43.1818,139.095,30.4262,-93.1544,3842.27,-179.918
3,285.873,43.1811,139.612,25.8262,-230,-6842.3,-179.916
3.02,285.385,43.1803,140.1,24.4131,-70.654,7967.32,-179.915
3.04,285.005,43.1798,140.479,18.9631,-272.501,-10092.3,-179.914
3.06,284.626,43.1792,140.859,18.9631,0.000362805,13625.1,-179.913
3.08,284.292,43.1787,141.193,16.7131,-112.5,-5625.03,-179.912
3.1,283.992,43.1782,141.493,15,-85.6544,1342.29,-179.912
3.12,283.692,43.1778,141.793,15.0131,0.654123,4315.43,-179.911
3.14,283.392,43.1773,142.093,15,-0.654123,-65.4123,-179.911
3.16,283.091,43.1768,142.393,15.0131,0.654498,65.4311,-179.91
3.18,282.791,43.1764,142.693,15,-0.654873,-65.4686,-179.91
3.2,282.491,43.1759,142.994,15.0131,0.654873,65.4873,-179.909
3.22,282.191,43.1754,143.294,15,-0.654498,-65.4686,-179.909
3.24,281.891,43.1749,143.594,15,-1.4202e-10,32.7249,-179.909
3.26,281.591,43.1745,143.894,15,-0.000374999,-0.01875,-179.909
3.28,281.291,43.174,144.194,15.0131,0.654873,32.7624,-179.908
3.3,280.991,43.1735,144.494,15,-0.654498,-65.4686,-179.908
3.32,280.691,43.173,144.794,15,8.88178e-14,32.7249,-179.908
3.34,280.391,43.1725,145.094,15,-1.42109e-10,-7.10987e-09,-179.908
3.36,280.091,43.172,145.394,15,1.4202e-10,1.42064e-08,-179.908
3.38,279.791,43.1716,145.694,15,-0.000375,-0.01875,-179.908
3.4,279.491,43.1711,145.994,15,0.000375,0.0375,-179.908
3.42,279.191,43.1706,146.294,15,0,-0.01875,-179.908
3.44,278.891,43.1701,146.594,15,-1.42197e-10,-7.10987e-09,-179.908
3.46,278.591,43.1696,146.894,15,1.42197e-10,1.42197e-08,-179.908
3.48,278.291,43.1692,147.194,15,-0.000375,-0.01875,-179.908
3.5,277.991,43.1687,147.494,15,0.000375,0.0375,-179.908
3.52,277.691,43.1682,147.794,14.9869,-0.654498,-32.7437,-179.909
3.54,277.391,43.1677,148.094,15,0.654498,65.4498,-179.909
3.56,277.091,43.1672,148.394,15,1.42197e-10,-32.7249,-179.909
3.58,276.791,43.1668,148.694,15,-0.000375,-0.01875,-179.909
3.6,276.491,43.1663,148.993,14.9869,-0.654123,-32.6874,-179.91
3.62,276.191,43.1658,149.293,15,0.654498,65.4311,-179.91
3.64,275.891,43.1653,149.593,15,-1.4202e-10,-32.7249,-179.91
3.66,275.592,43.1649,149.893,14.9869,-0.654873,-32.7437,-179.911
3.68,275.292,43.1644,150.193,15,0.654873,65.4873,-179.911
3.7,274.992,43.164,150.493,14.9869,-0.654873,-65.4873,-179.912
3.72,274.692,43.1635,150.793,15,0.654873,65.4873,-179.912
3.74,274.392,43.163,151.093,14.9869,-0.654498,-65.4686,-179.913
3.76,274.092,43.1626,151.393,15,0.654123,65.4311,-179.913
3.78,273.792,43.1621,151.692,14.9869,-0.654123,-65.4123,-179.914
3.8,273.492,43.1617,151.992,15,0.654123,65.4123,-179.914
3.82,273.193,43.1612,152.292,14.9869,-0.654123,-65.4123,-179.915
3.84,272.893,43.1608,152.592,15,0.654123,65.4123,-179.915
3.86,272.593,43.1603,152.892,14.9869,-0.654123,-65.4123,-179.916
3.88,272.293,43.1599,153.192,14.9869,-0.000375007,32.6874,-179.917
3.9,271.993,43.1595,153.492,15,0.654498,32.7437,-179.917
3.92,271.694,43.159,153.791,14.9869,-0.654123,-65.4311,-179.918
3.94,271.394,43.1586,154.091,14.9869,-0.000375014,32.6874,-179.919
3.96,271.094,43.1582,154.391,15,0.654498,32.7437,-179.919
3.98,270.794,43.1578,154.691,14.9869,-0.654498,-65.4498,-179.92
4,270.494,43.1573,154.99,14.9869,0.000375024,32.7437,-179.921
4.02,270.194,43.1569,155.29,15,0.654123,32.6874,-179.921
4.04,269.895,43.1565,155.59,14.9869,-0.654498,-65.4311,-179.922
4.06,269.595,43.1561,155.89,14.9869,-8.3844e-11,32.7249,-179.923
4.08,269.295,43.1557,156.19,14.9869,-1.5028e-10,-3.32179e-09,-179.924
4.1,268.995,43.1553,156.49,15,0.654498,32.7249,-179.924
4.12,268.695,43.1549,156.789,14.9869,-0.654498,-65.4498,-179.925
4.14,268.396,43.1545,157.089,14.9869,2.00995e-10,32.7249,-179.926
4.16,268.096,43.1541,157.389,14.9869,5.60796e-10,1.79901e-08,-179.927
4.18,267.796,43.1538,157.689,14.9869,-0.000291644,-0.0145822,-179.928
4.2,267.496,43.1534,157.989,15,0.65479,32.7541,-179.928
4.22,267.196,43.153,158.288,14.9869,-0.654498,-65.4644,-179.929
4.24,266.897,43.1526,158.588,14.9869,9.87566e-10,32.7249,-179.93
4.26,266.597,43.1523,158.888,14.9869,-0.000291655,-0.0145828,-179.931
4.28,266.297,43.1519,159.188,14.9869,0.000291658,0.0291656,-179.932
4.3,265.997,43.1516,159.487,14.9869,-0.000291662,-0.029166,-179.933
4.32,265.697,43.1512,159.787,15,0.65479,32.7541,-179.933
4.34,265.398,43.1509,160.087,14.9869,-0.65479,-65.479,-179.934
4.36,265.098,43.1505,160.387,14.9869,0.00029167,32.7541,-179.935
4.38,264.798,43.1502,160.687,14.9869,-0.000291673,-0.0291671,-179.936
4.4,264.499,43.1498,160.986,14.9869,0.000291678,0.0291675,-179.937
4.42,264.199,43.1495,161.286,14.9869,-0.00029168,-0.0291679,-179.938
4.44,263.899,43.1492,161.586,14.9869,-1.25855e-09,0.014584,-179.939
4.46,263.599,43.1489,161.885,14.9869,-4.81304e-10,3.88622e-08,-179.94
4.48,263.299,43.1486,162.185,15,0.654498,32.7249,-179.94
4.5,263,43.1482,162.485,14.9869,-0.654207,-65.4353,-179.941
4.52,262.7,43.1479,162.785,14.9869,-0.000291695,32.6958,-179.942
4.54,262.4,43.1476,163.085,14.9869,-5.47473e-10,0.0145847,-179.943
4.56,262.1,43.1473,163.384,14.9869,3.72058e-10,4.59766e-08,-179.944
4.58,261.801,43.1471,163.684,14.9869,-0.000208303,-0.0104152,-179.945
4.6,261.501,43.1468,163.984,14.9869,0.000208304,0.0208304,-179.946
4.62,261.201,43.1465,164.284,14.9869,5.90283e-10,-0.0104152,-179.947
4.64,260.901,43.1462,164.583,14.9869,7.99005e-10,1.04361e-08,-179.948
4.66,260.602,43.1459,164.883,14.9869,1.15898e-09,1.79989e-08,-179.949
4.68,260.302,43.1457,165.183,15,0.65429,32.7145,-179.949
4.7,260.002,43.1454,165.483,14.9869,-0.65429,-65.429,-179.95
4.72,259.702,43.1452,165.783,14.9869,-0.000208325,32.7041,-179.951
4.74,259.402,43.1449,166.082,14.9869,0.000208328,0.0208327,-179.952
4.76,259.103,43.1447,166.382,14.9869,-0.000208332,-0.020833,-179.953
4.78,258.803,43.1444,166.682,14.9869,0.000208336,0.0208334,-179.954
4.8,258.503,43.1442,166.982,14.9869,-0.000208339,-0.0208338,-179.955
4.82,258.203,43.1439,167.281,14.9869,0.000208344,0.0208342,-179.956
4.84,257.904,43.1437,167.581,14.9869,-0.000208347,-0.0208346,-179.957
4.86,257.604,43.1435,167.881,14.9869,-9.45199e-10,0.0104173,-179.958
4.88,257.304,43.1433,168.181,15,0.654498,32.7249,-179.958
4.9,257.004,43.143,168.481,14.9869,-0.65429,-65.4394,-179.959
4.92,256.705,43.1428,168.78,14.9869,-0.000208358,32.7041,-179.96
4.94,256.405,43.1426,169.08,14.9869,-5.18252e-10,0.0104179,-179.961
4.96,256.105,43.1424,169.38,14.9869,1.16795e-10,3.17524e-08,-179.962
4.98,255.805,43.1422,169.679,14.9869,-1.62625e-10,-1.3971e-08,-179.963
5,255.506,43.142,169.979,14.9869,4.01368e-10,2.81997e-08,-179.964
5.02,255.206,43.1419,170.279,15,0.654373,32.7187,-179.964
5.04,254.906,43.1417,170.579,14.9869,-0.654373,-65.4373,-179.965
5.06,254.606,43.1415,170.879,14.9869,6.14886e-10,32.7187,-179.966
5.08,254.306,43.1413,171.178,14.9869,9.03722e-10,1.44418e-08,-179.967
5.1,254.007,43.1411,171.478,14.9869,1.04148e-09,6.88782e-09,-179.968
5.12,253.707,43.141,171.778,14.9869,-0.000124988,-0.00624945,-179.969
5.14,253.407,43.1408,172.078,14.9869,0.000124991,0.0124989,-179.97
5.16,253.107,43.1407,172.378,15,0.654373,32.7124,-179.97
5.18,252.807,43.1405,172.677,14.9869,-0.654373,-65.4373,-179.971
5.2,252.508,43.1404,172.977,14.9869,-0.000124999,32.7124,-179.972
5.22,252.208,43.1402,173.277,14.9869,0.000125003,0.0125001,-179.973
5.24,251.908,43.1401,173.577,14.9869,-0.000125006,-0.0125004,-179.974
5.26,251.608,43.1399,173.877,15,0.654623,32.7374,-179.974
5.28,251.308,43.1398,174.176,14.9869,-0.654623,-65.4623,-179.975
5.3,251.009,43.1397,174.476,14.9869,-1.13385e-09,32.7312,-179.976
5.32,250.709,43.1395,174.776,14.9869,0.000125019,0.00625098,-179.977
5.34,250.409,43.1394,175.076,15,0.654373,32.7124,-179.977
5.36,250.109,43.1393,175.376,14.9869,-0.654498,-65.4436,-179.978
5.38,249.81,43.1392,175.675,14.9869,-4.22773e-10,32.7249,-179.979
5.4,249.51,43.1391,175.975,14.9869,-4.18154e-10,2.30926e-10,-179.98
5.42,249.21,43.139,176.275,15,0.654498,32.7249,-179.98
5.44,248.91,43.1389,176.575,14.9869,-0.654498,-65.4498,-179.981
5.46,248.61,43.1388,176.874,14.9869,-6.70575e-11,32.7249,-179.982
5.48,248.31,43.1387,177.174,15,0.654498,32.7249,-179.982
5.5,248.011,43.1386,177.474,14.9869,-0.654498,-65.4498,-179.983
5.52,247.711,43.1385,177.774,14.9869,3.26406e-10,32.7249,-179.984
5.54,247.411,43.1384,178.074,15,0.654498,32.7249,-179.984
5.56,247.111,43.1384,178.374,14.9869,-0.65454,-65.4519,-179.985
5.58,246.811,43.1383,178.673,14.9869,4.16448e-05,32.7291,-179.986
5.6,246.511,43.1382,178.973,15,0.654498,32.7228,-179.986
5.62,246.212,43.1381,179.273,14.9869,-0.654498,-65.4498,-179.987
5.64,245.912,43.1381,179.573,15,0.654457,65.4478,-179.987
5.66,245.612,43.138,179.873,14.9869,-0.654457,-65.4457,-179.988
5.68,245.312,43.1379,180.173,14.9869,1.56843e-09,32.7228,-179.989
5.7,245.012,43.1379,180.473,15,0.654457,32.7228,-179.989
5.72,244.712,43.1378,180.772,14.9869,-0.654457,-65.4457,-179.99
5.74,244.412,43.1378,181.072,15,0.654457,65.4457,-179.99
5.76,244.113,43.1377,181.372,14.9869,-0.654457,-65.4457,-179.991
5.78,243.813,43.1377,181.672,15,0.654457,65.4457,-179.991
5.8,243.513,43.1376,181.972,14.9869,-0.654457,-65.4457,-179.992
5.82,243.213,43.1376,182.272,15,0.654457,65.4457,-179.992
5.84,242.913,43.1376,182.572,14.9869,-0.654498,-65.4478,-179.993
5.86,242.613,43.1375,182.872,15,0.65454,65.4519,-179.993
5.88,242.313,43.1375,183.171,14.9869,-0.65454,-65.454,-179.994
5.9,242.013,43.1375,183.471,15,0.654498,65.4519,-179.994
5.92,241.714,43.1374,183.771,14.9869,-0.654457,-65.4478,-179.995
5.94,241.414,43.1374,184.071,15,0.654457,65.4457,-179.995
5.96,241.114,43.1374,184.371,15,-3.77476e-11,-32.7228,-179.995
5.98,240.814,43.1374,184.671,14.9869,-0.654498,-32.7249,-179.996
6,240.514,43.1373,184.971,15,0.65454,65.4519,-179.996
6.02,240.214,43.1373,185.271,14.9869,-0.65454,-65.454,-179.997
6.04,239.914,43.1373,185.571,15,0.654498,65.4519,-179.997
6.06,239.614,43.1373,185.871,15,-3.77476e-11,-32.7249,-179.997
6.08,239.314,43.1373,186.171,15,3.77476e-11,3.77476e-09,-179.997
6.1,239.014,43.1373,186.47,14.9869,-0.654498,-32.7249,-179.998
6.12,238.714,43.1372,186.77,15,0.65454,65.4519,-179.998
6.14,238.414,43.1372,187.07,15,-4.16666e-05,-32.7291,-179.998
6.16,238.115,43.1372,187.37,14.9869,-0.654498,-32.7228,-179.999
6.18,237.815,43.1372,187.67,15,0.654498,65.4498,-179.999
6.2,237.515,43.1372,187.97,15,-3.33067e-11,-32.7249,-179.999
6.22,237.215,43.1372,188.27,15,-3.77476e-11,-2.22045e-10,-179.999
