"time","x","y","position","velocity","acceleration","jerk","heading"
0,425.468,40.4319,0,0,0,0,180
0.02,425.295,40.4319,0.172511,8.62557,431.278,21563.9,179.998
0.04,425.123,40.4319,0.345023,8.62557,1.42526e-09,-21563.9,179.996
0.06,424.95,40.4319,0.517534,8.62557,3.13491e-09,8.54827e-08,179.994
0.08,424.778,40.4319,0.690045,8.62557,4.41789e-09,6.41487e-08,179.992
0.1,424.604,40.432,0.863557,8.67557,2.50007,125.004,179.99
0.12,424.378,40.432,1.09033,11.3389,133.167,6533.36,179.985
0.14,423.963,40.4321,1.50516,20.7412,470.113,16847.3,179.972
0.16,423.547,40.4324,1.92098,20.7912,2.50024,-23380.6,179.959
0.18,423.029,40.4328,2.43863,25.8824,254.559,12602.9,179.933
0.2,422.491,40.4336,2.97679,26.9079,51.2794,-10164,179.905
0.22,421.856,40.4348,3.61155,31.7381,241.506,9511.32,179.859
0.24,421.184,40.4367,4.28411,33.6282,94.5067,-7349.95,179.804
0.26,420.459,40.4396,5.00875,36.2317,130.177,1783.49,179.737
0.28,419.67,40.4437,5.79826,39.4754,162.186,1600.48,179.649
0.3,418.823,40.4496,6.64464,42.3194,142.197,-999.476,179.54
0.32,417.926,40.4578,7.54243,44.8892,128.492,-685.247,179.408
0.34,416.975,40.4688,8.49313,47.5352,132.301,190.451,179.251
0.36,415.973,40.4834,9.49531,50.1087,128.675,-181.272,179.063
0.38,414.92,40.5025,10.5485,52.6602,127.575,-55.0335,178.838
0.4,413.817,40.5273,11.6518,55.1638,125.177,-119.856,178.576
0.42,412.659,40.5589,12.8102,57.9223,137.927,637.483,178.269
0.44,411.456,40.5987,14.0142,60.1982,113.794,-1206.67,177.914
0.46,410.208,40.6484,15.2623,62.4053,110.358,-171.805,177.509
0.48,408.912,40.7097,16.56,64.8856,124.012,682.736,177.043
0.5,407.573,40.7848,17.901,67.0513,108.284,-786.404,176.518
0.52,406.188,40.8758,19.2896,69.4288,118.879,529.719,175.938
0.54,404.759,40.9852,20.7226,71.6495,111.033,-392.3,175.301
0.56,403.278,41.1157,22.2093,74.3341,134.228,1159.75,174.627
0.58,401.744,41.2693,23.7507,77.0702,136.809,129.051,173.939
0.6,400.148,41.4486,25.3567,80.3021,161.595,1239.3,173.276
0.62,398.503,41.6516,27.0141,82.8669,128.241,-1667.68,172.694
0.64,396.828,41.8739,28.7043,84.5091,82.1058,-2306.77,172.242
0.66,395.113,42.1128,30.4355,86.5644,102.766,1032.99,171.964
0.68,393.359,42.3634,32.2075,88.5991,101.736,-51.472,171.849
0.7,391.561,42.6205,34.0238,90.8133,110.708,448.598,171.915
0.72,389.721,42.8789,35.8822,92.9196,105.32,-269.426,172.152
0.74,387.851,43.1314,37.7686,94.3216,70.0968,-1761.14,172.509
0.76,385.953,43.3736,39.6825,95.6929,68.5656,-76.5598,172.973
0.78,384.035,43.6013,41.6137,96.5628,43.4974,-1253.41,173.512
0.8,382.101,43.8113,43.5587,97.2467,34.1906,-465.34,174.103
0.82,380.159,44.0016,45.5107,97.602,17.7658,-821.239,174.727
0.84,378.208,44.1706,47.469,97.916,15.7021,-103.189,175.372
0.86,376.254,44.3176,49.4284,97.9681,2.60517,-654.844,176.028
0.88,374.295,44.4421,51.3908,98.1194,7.56301,247.892,176.69
0.9,372.336,44.5441,53.3532,98.1204,0.0527711,-375.512,177.357
0.92,370.373,44.6232,55.3178,98.233,5.62796,278.76,178.029
0.94,368.407,44.6792,57.284,98.3064,3.66806,-97.9953,178.71
0.96,366.53,44.7144,59.1615,93.8764,-221.496,-11258.2,179.026
0.98,364.7,44.7435,60.9915,91.5019,-118.728,5138.4,179.148
1,362.874,44.7687,62.8178,91.3147,-9.35672,5468.57,179.259
1.02,361.05,44.7907,64.6422,91.2161,-4.93417,221.128,179.358
1.04,359.228,44.8097,66.4642,91.1044,-5.58195,-32.389,179.448
1.06,357.408,44.8259,68.2841,90.9932,-5.56062,1.06653,179.529
1.08,355.59,44.8397,70.102,90.8944,-4.93848,31.1067,179.602
1.1,353.774,44.8512,71.9182,90.8081,-4.31425,31.2116,179.668
1.12,351.96,44.8607,73.7324,90.7099,-4.9145,-30.0124,179.726
1.14,350.147,44.8686,75.5448,90.6239,-4.29648,30.9009,179.777
1.16,348.337,44.8749,77.3556,90.5381,-4.29074,0.286793,179.821
1.18,346.527,44.88,79.1649,90.4646,-3.67539,30.7676,179.859
1.2,344.719,44.8838,80.973,90.4034,-3.06166,30.6867,179.892
1.22,342.913,44.8868,82.7791,90.3056,-4.8907,-91.452,179.917
1.24,341.108,44.8891,84.584,90.2444,-3.0569,91.6898,179.937
1.26,339.305,44.8908,86.3876,90.1833,-3.05599,0.0454847,179.952
1.28,337.503,44.8921,88.1896,90.0978,-4.27689,-61.0449,179.96
1.3,335.702,44.8933,89.9906,90.0489,-2.44363,91.6628,179.964
1.32,333.903,44.8945,91.7898,89.9634,-4.27606,-91.6211,179.961
1.34,332.104,44.8958,93.5879,89.9023,-3.05415,61.0952,179.953
1.36,330.308,44.8975,95.3844,89.829,-3.66436,-30.5103,179.939
1.38,328.513,44.8997,97.1798,89.7679,-3.05297,30.5693,179.92
1.4,326.718,44.9025,98.9739,89.7069,-3.05224,0.0364603,179.896
1.42,324.925,44.9062,100.767,89.6459,-3.05026,0.0989577,179.867
1.44,323.134,44.9108,102.559,89.5849,-3.04849,0.0885437,179.833
1.46,321.343,44.9167,104.349,89.524,-3.04549,0.150001,179.794
1.48,319.554,44.9238,106.139,89.4876,-1.82176,61.1865,179.752
1.5,317.765,44.9321,107.928,89.439,-2.42947,-30.3853,179.706
1.52,315.977,44.9421,109.716,89.415,-1.20129,61.4091,179.658
1.54,314.189,44.9536,111.503,89.3788,-1.8086,-30.3655,179.607
1.56,312.402,44.9666,113.291,89.3671,-0.585137,61.173,179.555
1.58,310.619,44.9812,115.073,89.1299,-11.8578,-563.635,179.504
1.6,308.875,44.9971,116.817,87.1928,-96.8574,-4249.98,179.454
1.62,307.194,45.0139,118.499,84.0922,-155.028,-2908.53,179.408
1.64,305.569,45.0312,120.124,81.2416,-142.533,624.731,179.366
1.66,304.003,45.049,121.69,78.303,-146.926,-219.612,179.329
1.68,302.497,45.0671,123.196,75.3145,-149.426,-125.049,179.297
1.7,301.047,45.0853,124.646,72.4758,-141.935,374.585,179.27
1.72,299.658,45.1033,126.035,69.4493,-151.325,-469.532,179.249
1.74,298.33,45.1209,127.364,66.4482,-150.057,63.4446,179.232
1.76,297.056,45.1381,128.637,63.6847,-138.172,594.246,179.218
1.78,295.841,45.1549,129.853,60.7581,-146.335,-408.145,179.21
1.8,294.69,45.1708,131.003,57.5444,-160.683,-717.424,179.205
1.82,293.598,45.1859,132.096,54.6308,-145.677,750.274,179.203
1.84,292.564,45.2003,133.13,51.705,-146.292,-30.7163,179.203
1.86,291.589,45.214,134.105,48.7292,-148.792,-124.988,179.205
1.88,290.672,45.2266,135.022,45.8654,-143.188,280.172,179.21
1.9,289.813,45.2385,135.881,42.9652,-145.01,-91.1107,179.215
1.92,289.018,45.2493,136.676,39.727,-161.912,-845.062,179.221
1.94,288.291,45.2591,137.404,36.3888,-166.908,-249.803,179.228
1.96,287.615,45.2682,138.079,33.7764,-130.623,1814.25,179.234
1.98,286.99,45.2766,138.704,31.2383,-126.904,185.908,179.241
2,286.454,45.2836,139.241,26.8378,-220.024,-4655.96,179.248
2.02,285.936,45.2904,139.759,25.8878,-47.5025,8626.06,179.255
2.04,285.54,45.2955,140.155,19.8127,-303.751,-12812.4,179.26
2.06,285.16,45.3004,140.535,19.0127,-40.0031,13187.4,179.265
2.08,284.799,45.3051,140.895,18.0126,-50.0055,-500.12,179.27
2.1,284.498,45.3089,141.197,15.0623,-147.514,-4875.4,179.275
2.12,284.197,45.3127,141.498,15.0623,-3.2303e-09,7375.68,179.28
2.14,283.896,45.3164,141.799,15.0622,-0.00312481,-0.15624,179.285
2.16,283.594,45.3202,142.1,15.0623,0.00312473,0.312477,179.29
2.18,283.294,45.3239,142.401,15.05,-0.61399,-30.8557,179.294
2.2,282.992,45.3277,142.702,15.0622,0.610865,61.2428,179.299
2.22,282.691,45.3313,143.004,15.0622,-0.00304149,-30.6953,179.304
2.24,282.39,45.335,143.305,15.0744,0.613907,30.8474,179.31
2.26,282.088,45.3386,143.606,15.0622,-0.613907,-61.3907,179.315
2.28,281.787,45.3421,143.908,15.0743,0.607907,61.0907,179.321
2.3,281.486,45.3457,144.209,15.0622,-0.607907,-60.7907,179.326
2.32,281.184,45.3492,144.511,15.0743,0.607907,60.7907,179.332
2.34,280.883,45.3528,144.812,15.0621,-0.610865,-60.9386,179.337
2.36,280.582,45.3562,145.113,15.0743,0.60799,60.9428,179.343
2.38,280.28,45.3597,145.415,15.0743,0.00287476,-30.2558,179.349
2.4,279.979,45.3631,145.716,15.0743,-0.0028747,-0.287473,179.355
2.42,279.677,45.3664,146.018,15.062,-0.613657,-30.5391,179.36
2.44,279.376,45.3698,146.319,15.0743,0.613657,61.3657,179.366
2.46,279.074,45.3732,146.621,15.0742,-0.00279141,-30.8224,179.372
2.48,278.773,45.3764,146.922,15.0742,-0.00270828,0.00415638,179.378
2.5,278.471,45.3797,147.224,15.0864,0.613573,30.8141,179.385
2.52,278.17,45.3829,147.525,15.0742,-0.613573,-61.3573,179.391
2.54,277.868,45.3861,147.827,15.0742,-1.41044e-08,30.6787,179.397
2.56,277.567,45.3892,148.128,15.0741,-0.00262488,-0.131243,179.403
2.58,277.265,45.3924,148.43,15.0863,0.610865,30.6745,179.41
2.6,276.964,45.3955,148.731,15.0741,-0.610865,-61.0865,179.416
2.62,276.662,45.3985,149.033,15.0741,-0.00254156,30.4162,179.422
2.64,276.361,45.4015,149.335,15.0863,0.610865,30.6703,179.429
2.66,276.059,45.4045,149.636,15.0741,-0.610865,-61.0865,179.435
2.68,275.758,45.4075,149.938,15.0741,-5.28123e-08,30.5433,179.441
2.7,275.456,45.4105,150.239,15.0862,0.608407,30.4204,179.448
2.72,275.154,45.4133,150.541,15.074,-0.61324,-61.0824,179.454
2.74,274.853,45.4162,150.843,15.0862,0.61324,61.324,179.461
2.76,274.551,45.419,151.144,15.074,-0.61324,-61.324,179.467
2.78,274.25,45.4217,151.446,15.0861,0.608574,61.0907,179.474
2.8,273.948,45.4245,151.747,15.0862,0.0022916,-30.3141,179.481
2.82,273.646,45.4272,152.049,15.0739,-0.613157,-30.7724,179.487
2.84,273.345,45.43,152.351,15.0861,0.610865,61.2011,179.494
2.86,273.043,45.4326,152.652,15.0739,-0.613073,-61.1969,179.5
2.88,272.741,45.4352,152.954,15.0861,0.610865,61.1969,179.507
2.9,272.44,45.4378,153.255,15.0739,-0.610865,-61.0865,179.513
2.92,272.138,45.4403,153.557,15.086,0.60874,60.9803,179.52
2.94,271.837,45.4428,153.859,15.086,2.31887e-08,-30.437,179.527
2.96,271.535,45.4452,154.16,15.0738,-0.612907,-30.6453,179.533
2.98,271.233,45.4477,154.462,15.086,0.612907,61.2907,179.54
3,270.932,45.4502,154.763,15.0738,-0.612907,-61.2907,179.546
3.02,270.63,45.4525,155.065,15.086,0.608907,61.0907,179.553
3.04,270.329,45.4548,155.367,15.0737,-0.610865,-60.9886,179.559
3.06,270.027,45.4571,155.668,15.086,0.610865,61.0865,179.566
3.08,269.726,45.4594,155.97,15.0737,-0.610865,-61.0865,179.572
3.1,269.424,45.4616,156.272,15.0859,0.60899,60.9928,179.579
3.12,269.122,45.4638,156.573,15.0737,-0.610865,-60.9928,179.585
3.14,268.821,45.466,156.875,15.0859,0.610865,61.0865,179.592
3.16,268.519,45.4682,157.176,15.0737,-0.612657,-61.1761,179.598
3.18,268.218,45.4703,157.478,15.0859,0.610865,61.1761,179.605
3.2,267.916,45.4723,157.779,15.0736,-0.612574,-61.1719,179.611
3.22,267.614,45.4743,158.081,15.0859,0.610865,61.1719,179.618
3.24,267.313,45.4763,158.383,15.0736,-0.610865,-61.0865,179.624
3.26,267.011,45.4783,158.684,15.0736,-3.96454e-08,30.5433,179.63
3.28,266.71,45.4802,158.986,15.0858,0.60924,30.462,179.637
3.3,266.408,45.4821,159.287,15.0736,-0.610865,-61.0053,179.643
3.32,266.107,45.4839,159.589,15.0736,-0.00154169,30.4662,179.649
3.34,265.805,45.4857,159.89,15.0736,4.82271e-08,0.077087,179.655
3.36,265.505,45.4876,160.191,15.0358,-1.88909,-94.4545,179.662
3.38,265.203,45.4894,160.492,15.0736,1.88909,188.909,179.668
3.4,264.902,45.4911,160.794,15.0735,-0.00145828,-94.5274,179.674
3.42,264.6,45.4928,161.095,15.0735,8.8054e-09,0.0729142,179.68
3.44,264.299,45.4945,161.397,15.0735,-3.10743e-08,-1.99398e-06,179.686
3.46,263.997,45.4961,161.698,15.0735,-0.00137496,-0.0687466,179.692
3.48,263.696,45.4977,162,15.0735,1.63373e-08,0.068749,179.698
3.5,263.394,45.4993,162.301,15.0735,-2.38266e-08,-2.0082e-06,179.704
3.52,263.093,45.5008,162.603,15.0735,-0.00129165,-0.0645813,179.71
3.54,262.791,45.5023,162.904,15.0735,2.35857e-08,0.0645836,179.716
3.56,262.49,45.5038,163.205,15.0613,-0.610865,-30.5433,179.721
3.58,262.189,45.5052,163.507,15.0735,0.609657,61.0261,179.727
3.6,261.887,45.5066,163.808,15.0735,3.74811e-08,-30.4828,179.733
3.62,261.586,45.5081,164.11,15.0735,-2.54028e-09,-2.00107e-06,179.739
3.64,261.285,45.5095,164.411,15.0612,-0.610865,-30.5433,179.744
3.66,260.983,45.5108,164.713,15.0734,0.60974,61.0303,179.75
3.68,260.682,45.5121,165.014,15.0734,1.14977e-08,-30.487,179.756
3.7,260.38,45.5133,165.315,15.0612,-0.611907,-30.5953,179.761
3.72,260.079,45.5146,165.616,15.0612,0.00104166,30.6474,179.766
3.74,259.778,45.5158,165.918,15.0734,0.609824,30.4391,179.772
3.76,259.476,45.517,166.219,15.0612,-0.610865,-61.0344,179.777
3.78,259.175,45.5181,166.52,15.0612,-0.00095837,30.4953,179.782
3.8,258.874,45.5192,166.822,15.0734,0.610865,30.5912,179.788
3.82,258.573,45.5203,167.123,15.0612,-0.610865,-61.0865,179.793
3.84,258.271,45.5214,167.424,15.0612,-1.43219e-08,30.5433,179.798
3.86,257.97,45.5225,167.725,15.0612,-3.75338e-08,-1.1606e-06,179.803
3.88,257.669,45.5235,168.027,15.0612,-0.000874948,-0.0437455,179.808
3.9,257.368,45.5245,168.328,15.0612,4.52856e-09,0.0437476,179.813
3.92,257.066,45.5254,168.629,15.0612,-0.000791735,-0.039587,179.818
3.94,256.765,45.5264,168.93,15.0612,0.000791675,0.0791705,179.823
3.96,256.464,45.5273,169.232,15.0612,-0.000791605,-0.079164,179.828
3.98,256.163,45.5282,169.533,15.0612,5.93925e-10,0.0395803,179.833
4,255.862,45.529,169.834,15.0611,-0.000708391,-0.0354196,179.838
4.02,255.561,45.5299,170.135,15.0489,-0.610157,-30.4724,179.842
4.04,255.259,45.5308,170.436,15.0611,0.610157,61.0157,179.847
4.06,254.958,45.5316,170.737,15.0489,-0.610865,-61.0511,179.851
4.08,254.657,45.5323,171.038,15.0611,0.61024,61.0553,179.856
4.1,254.356,45.5331,171.339,15.0489,-0.61024,-61.024,179.86
4.12,254.055,45.5338,171.641,15.0611,0.61024,61.024,179.865
4.14,253.754,45.5345,171.942,15.0489,-0.610865,-61.0553,179.869
4.16,253.453,45.5352,172.243,15.0489,-8.023e-09,30.5433,179.873
4.18,253.152,45.5358,172.544,15.0611,0.610324,30.5162,179.878
4.2,252.851,45.5364,172.845,15.0489,-0.610865,-61.0594,179.882
4.22,252.55,45.537,173.146,15.0489,1.00508e-08,30.5433,179.886
4.24,252.249,45.5376,173.447,15.0489,-1.77227e-09,-5.91154e-07,179.89
4.26,251.948,45.5382,173.748,15.0489,-1.36039e-08,-5.9158e-07,179.894
4.28,251.647,45.5387,174.049,15.0489,-0.000458343,-0.0229165,179.898
4.3,251.346,45.5393,174.35,15.0489,0.00045828,0.0458312,179.902
4.32,251.045,45.5398,174.65,15.0367,-0.611323,-30.5891,179.905
4.34,250.744,45.5403,174.951,15.0489,0.610865,61.1094,179.909
4.36,250.443,45.5407,175.252,15.0489,-0.000375056,-30.562,179.913
4.38,250.143,45.5412,175.553,15.0367,-0.61049,-30.5058,179.916
4.4,249.842,45.5416,175.854,15.0489,0.61049,61.049,179.92
4.42,249.541,45.542,176.155,15.0367,-0.610865,-61.0678,179.923
4.44,249.24,45.5424,176.456,15.0489,0.610865,61.0865,179.927
4.46,248.939,45.5428,176.757,15.0367,-0.610865,-61.0865,179.93
4.48,248.638,45.5431,177.057,15.0367,-0.000291695,30.5287,179.933
4.5,248.338,45.5435,177.358,15.0367,0.000291668,0.0291682,179.936
4.52,248.037,45.5438,177.659,15.0489,0.610574,30.5141,179.94
4.54,247.736,45.5441,177.96,15.0367,-0.610865,-61.0719,179.943
4.56,247.435,45.5444,178.26,15.0367,-4.22951e-10,30.5433,179.946
4.58,247.134,45.5447,178.561,15.0367,-5.5933e-09,-2.58518e-07,179.949
4.6,246.834,45.5449,178.862,15.0244,-0.611074,-30.5537,179.951
4.62,246.533,45.5452,179.162,15.0367,0.611074,61.1074,179.954
4.64,246.233,45.5454,179.463,15.0367,-0.000208318,-30.5641,179.957
4.66,245.932,45.5456,179.764,15.0367,8.09752e-09,0.0104163,179.96
4.68,245.631,45.5458,180.064,15.0244,-0.610865,-30.5433,179.962
4.7,245.331,45.546,180.365,15.0244,-4.23661e-11,30.5433,179.964
4.72,245.03,45.5462,180.666,15.0367,0.610865,30.5433,179.967
4.74,244.73,45.5464,180.966,15.0244,-0.610865,-61.0865,179.969
4.76,244.429,45.5465,181.267,15.0244,-0.000125015,30.537,179.971
4.78,244.129,45.5467,181.567,15.0244,0.000125003,0.0125009,179.973
4.8,243.828,45.5468,181.868,15.0367,0.61074,30.5308,179.976
4.82,243.527,45.5469,182.168,15.0244,-0.610865,-61.0803,179.978
4.84,243.227,45.547,182.469,15.0122,-0.610865,-3.18666e-07,179.979
4.86,242.927,45.5471,182.769,15.0244,0.610865,61.0865,179.981
4.88,242.626,45.5472,183.069,15.0244,-4.20997e-11,-30.5433,179.983
4.9,242.326,45.5473,183.37,15.0244,-1.59881e-09,-7.78355e-08,179.985
4.92,242.025,45.5474,183.67,15.0122,-0.610865,-30.5433,179.986
4.94,241.725,45.5474,183.971,15.0244,0.610824,61.0844,179.988
4.96,241.425,45.5475,184.271,15.0122,-0.610824,-61.0824,179.989
4.98,241.124,45.5475,184.571,15.0244,0.610824,61.0824,179.991
5,240.824,45.5476,184.872,15.0122,-0.610824,-61.0824,179.992
5.02,240.524,45.5476,185.172,15.0122,-4.16614e-05,30.5391,179.993
5.04,240.223,45.5477,185.472,15.0122,4.16571e-05,0.00416593,179.994
5.06,239.923,45.5477,185.772,15.0122,-4.16547e-05,-0.00416559,179.995
5.08,239.623,45.5477,186.073,15.0122,8.18456e-10,0.00208277,179.996
5.1,239.323,45.5477,186.373,15.0122,8.85336e-10,3.34399e-09,179.997
5.12,239.022,45.5477,186.673,15.0122,4.63629e-10,-2.10854e-08,179.998
5.14,238.722,45.5477,186.973,15,-0.610865,-30.5433,179.998
5.16,238.559,45.5478,187.136,8.15,-342.5,-17094.5,179.998
5.18,238.409,45.5478,187.286,7.51222,-31.8892,15530.5,179.999
5.2,238.259,45.5478,187.436,7.5,-0.610865,1563.92,179.999
5.22,238.109,45.5478,187.586,7.5,-5.44009e-11,30.5433,179.999
5.24,237.959,45.5478,187.736,7.5,5.44009e-11,5.44009e-09,179.999
5.26,237.809,45.5478,187.886,7.5,1.66533e-11,-1.88738e-09,179.999
