"time","x","y","position","velocity","acceleration","jerk","heading"
0,534.644,49.1795,0,0,0,0,-153.4
0.02,534.489,49.1019,0.17334,8.667,433.35,21667.5,-153.4
0.04,534.334,49.0244,0.346635,8.66476,-0.111861,-21673.1,-153.4
0.06,534.179,48.9469,0.519753,8.65587,-0.444463,-16.6301,-153.399
0.08,534.024,48.8694,0.693048,8.66476,0.444463,44.4463,-153.399
0.1,533.869,48.7918,0.866388,8.667,0.111861,-16.6301,-153.399
0.12,533.665,48.6894,1.09465,11.4129,137.295,6859.17,-153.399
0.14,533.291,48.5023,1.51266,20.9006,474.384,16854.4,-153.398
0.16,532.918,48.3151,1.93071,20.9028,0.111923,-23713.6,-153.397
0.18,532.45,48.0806,2.45382,26.1554,262.63,13125.9,-153.395
0.2,531.962,47.8368,2.99898,27.2578,55.1181,-10375.6,-153.393
0.22,531.385,47.5476,3.64476,32.289,251.561,9822.13,-153.39
0.24,530.773,47.2407,4.32958,34.2411,97.6076,-7697.66,-153.386
0.26,530.112,46.9093,5.06901,36.9714,136.515,1945.36,-153.381
0.28,529.387,46.5463,5.87964,40.5313,177.993,2073.91,-153.375
0.3,528.608,46.1559,6.75081,43.559,151.383,-1330.53,-153.369
0.32,527.779,45.7397,7.67879,46.3989,141.997,-469.276,-153.361
0.34,526.896,45.297,8.66585,49.3528,147.695,284.909,-153.352
0.36,525.961,44.8274,9.71234,52.3246,148.588,44.6396,-153.343
0.38,524.972,44.3313,10.8186,55.3143,149.485,44.8689,-153.332
0.4,523.933,43.8086,11.9824,58.1899,143.783,-285.102,-153.321
0.42,522.833,43.256,13.2131,61.5329,167.148,1168.26,-153.309
0.44,521.681,42.6771,14.5022,64.4554,146.125,-1051.17,-153.298
0.46,520.481,42.0726,15.8464,67.2104,137.751,-418.718,-153.286
0.48,519.222,41.4392,17.2558,70.4682,162.89,1256.96,-153.276
0.5,517.911,40.7791,18.7229,73.355,144.342,-927.405,-153.267
0.52,516.546,40.0915,20.2518,76.4474,154.617,513.751,-153.26
0.54,515.127,39.3768,21.8401,79.4145,148.356,-313.021,-153.257
0.56,513.653,38.6335,23.4913,82.5582,157.186,441.465,-153.259
0.58,512.124,37.8638,25.2027,85.572,150.689,-324.814,-153.267
0.6,510.542,37.067,26.9742,88.5746,150.132,-27.8798,-153.283
0.62,508.901,36.2412,28.8118,91.8788,165.208,753.832,-153.311
0.64,507.204,35.3887,30.7108,94.9526,153.692,-575.811,-153.351
0.66,505.449,34.5091,32.6733,98.1246,158.598,245.278,-153.408
0.68,503.636,33.6029,34.7007,101.368,162.167,178.481,-153.486
0.7,501.762,32.6703,36.7935,104.64,163.621,72.6748,-153.589
0.72,499.827,31.7119,38.9527,107.962,166.084,123.137,-153.724
0.74,497.828,30.7283,41.1811,111.418,172.823,336.976,-153.897
0.76,495.761,29.7203,43.4806,114.977,177.913,254.5,-154.116
0.78,493.626,28.6903,45.8516,118.547,178.497,29.1718,-154.388
0.8,491.419,27.6403,48.2952,122.181,181.711,160.7,-154.724
0.82,489.133,26.5707,50.8191,126.195,200.73,950.982,-155.141
0.84,486.768,25.4872,53.42,130.048,192.606,-406.205,-155.643
0.86,484.316,24.3921,56.1058,134.289,212.045,971.962,-156.25
0.88,481.775,23.2921,58.8743,138.426,206.882,-258.145,-156.968
0.9,479.139,22.1932,61.7307,142.819,219.66,638.866,-157.803
0.92,476.403,21.1029,64.6761,147.268,222.413,137.655,-158.771
0.94,473.564,20.0308,67.7102,151.706,221.896,-25.8499,-159.868
0.96,470.624,18.9875,70.83,155.993,214.366,-376.469,-161.085
0.98,467.58,17.9834,74.0356,160.277,214.225,-7.08962,-162.411
1,464.438,17.0294,77.3187,164.155,193.898,-1016.35,-163.822
1.02,461.235,16.144,80.6418,166.155,100.009,-4694.46,-165.272
1.04,458.014,15.3405,83.9624,166.03,-6.27412,-5314.13,-166.712
1.06,454.782,14.619,87.2737,165.562,-23.3896,-855.774,-168.115
1.08,451.547,13.9781,90.5712,164.875,-34.3565,-548.344,-169.451
1.1,448.316,13.4135,93.8511,163.996,-43.9441,-479.383,-170.71
1.12,445.095,12.9207,97.1102,162.954,-52.1234,-408.962,-171.872
1.14,441.887,12.4933,100.346,161.813,-57.0341,-245.534,-172.937
1.16,438.692,12.1254,103.562,160.794,-50.9663,303.389,-173.904
1.18,435.514,11.8108,106.756,159.682,-55.5997,-231.672,-174.776
1.2,432.351,11.5438,109.93,158.715,-48.3236,363.805,-175.561
1.22,429.201,11.3192,113.088,157.874,-42.0445,313.959,-176.266
1.24,426.066,11.1322,116.228,157.026,-42.4352,-19.5394,-176.896
1.26,422.944,10.9787,119.354,156.29,-36.802,281.664,-177.463
1.28,419.834,10.8549,122.467,155.66,-31.4944,265.379,-177.97
1.3,416.734,10.7577,125.569,155.07,-29.5082,99.3085,-178.428
1.32,413.643,10.6842,128.66,154.588,-24.099,270.461,-178.841
1.34,410.559,10.6321,131.744,154.194,-19.6878,220.558,-179.216
1.36,407.483,10.5994,134.821,153.814,-19.0056,34.1132,-179.558
1.38,404.413,10.5843,137.891,153.507,-15.3546,182.546,-179.873
1.4,401.349,10.5854,140.955,153.227,-13.9977,67.8485,179.837
1.42,398.289,10.6015,144.015,152.978,-12.4102,79.3751,179.565
1.44,395.232,10.6315,147.072,152.856,-6.14261,313.378,179.309
1.46,392.177,10.675,150.127,152.752,-5.16615,48.8229,179.063
1.48,389.118,10.7318,153.187,152.997,12.2157,869.092,178.796
1.5,386.059,10.8035,156.246,152.973,-1.17666,-669.618,178.528
1.52,383.009,10.8882,159.298,152.589,-19.1956,-900.947,178.296
1.54,379.967,10.9841,162.341,152.166,-21.1404,-97.2404,178.099
1.56,376.932,11.0895,165.378,151.826,-17.0078,206.628,177.934
1.58,373.904,11.2024,168.408,151.517,-15.4407,78.3581,177.798
1.6,370.883,11.3215,171.432,151.185,-16.6327,-59.6026,177.693
1.62,367.869,11.4451,174.448,150.822,-18.1592,-76.3231,177.617
1.64,364.861,11.5717,177.459,150.544,-13.8599,214.966,177.571
1.66,361.86,11.6995,180.462,150.153,-19.5746,-285.737,177.556
1.68,358.867,11.827,183.459,149.808,-17.246,116.429,177.572
1.7,355.88,11.9526,186.448,149.498,-15.4843,88.0874,177.62
1.72,352.9,12.0746,189.43,149.085,-20.6422,-257.894,177.7
1.74,349.927,12.1913,192.405,148.758,-16.3615,214.031,177.813
1.76,346.962,12.3009,195.373,148.378,-19.0156,-132.702,177.959
1.78,344.003,12.4021,198.334,148.052,-16.3147,135.042,178.133
1.8,341.048,12.4933,201.29,147.785,-13.3268,149.396,178.334
1.82,338.103,12.5733,204.236,147.335,-22.491,-458.211,178.556
1.84,335.205,12.6406,207.135,144.908,-121.345,-4942.71,178.788
1.86,332.368,12.6949,209.973,141.906,-150.103,-1437.91,179.019
1.88,329.587,12.737,212.753,139.035,-143.56,327.194,179.242
1.9,326.864,12.768,215.476,136.156,-143.964,-20.2087,179.449
1.92,324.195,12.7893,218.146,133.485,-133.55,520.688,179.635
1.94,321.582,12.8021,220.759,130.649,-141.784,-411.68,179.797
1.96,319.022,12.8079,223.319,127.987,-133.099,434.254,179.933
1.98,316.516,12.8084,225.825,125.326,-133.052,2.31366,-179.957
2,314.066,12.8045,228.275,122.482,-142.197,-457.236,-179.87
2.02,311.67,12.7977,230.671,119.777,-135.244,347.655,-179.805
2.04,309.331,12.7886,233.01,116.978,-139.967,-236.147,-179.758
2.06,307.048,12.7782,235.293,114.156,-141.084,-55.8505,-179.727
2.08,304.822,12.7672,237.519,111.29,-143.314,-111.513,-179.708
2.1,302.654,12.756,239.687,108.412,-143.877,-28.1577,-179.7
2.12,300.543,12.7448,241.798,105.551,-143.047,41.4927,-179.7
2.14,298.492,12.7342,243.849,102.557,-149.724,-333.838,-179.705
2.16,296.499,12.7241,245.842,99.6237,-146.666,152.883,-179.716
2.18,294.567,12.7147,247.774,96.618,-150.283,-180.812,-179.731
2.2,292.694,12.7062,249.647,93.6401,-148.895,69.3829,-179.748
2.22,290.88,12.6985,251.461,90.7011,-146.951,97.2013,-179.766
2.24,289.126,12.6916,253.215,87.7121,-149.451,-124.978,-179.785
2.26,287.431,12.6856,254.911,84.7619,-147.507,97.161,-179.804
2.28,285.798,12.6803,256.543,81.6118,-157.505,-499.882,-179.823
2.3,284.223,12.6756,258.118,78.7617,-142.505,750.016,-179.842
2.32,282.71,12.6716,259.631,75.6394,-156.116,-680.575,-179.859
2.34,281.257,12.6683,261.085,72.6893,-147.504,430.618,-179.876
2.36,279.864,12.6655,262.477,69.6282,-153.059,-277.74,-179.892
2.38,278.529,12.6631,263.812,66.7559,-143.614,472.218,-179.906
2.4,277.257,12.6612,265.084,63.6058,-157.502,-694.378,-179.92
2.42,276.046,12.6597,266.295,60.5336,-153.614,194.399,-179.932
2.44,274.895,12.6584,267.447,57.5724,-148.057,277.853,-179.943
2.46,273.803,12.6574,268.539,54.6002,-148.613,-27.8263,-179.952
2.48,272.772,12.6566,269.57,51.5502,-152.5,-194.352,-179.961
2.5,271.801,12.656,270.54,48.5279,-151.113,69.3704,-179.968
2.52,270.892,12.6556,271.449,45.4668,-153.057,-97.1804,-179.974
2.54,270.041,12.6553,272.3,42.5168,-147.5,277.824,-179.98
2.56,269.248,12.655,273.094,39.6945,-141.113,319.372,-179.984
2.58,268.514,12.6548,273.828,36.6945,-150,-444.372,-179.988
2.6,267.856,12.6547,274.485,32.8834,-190.556,-2027.81,-179.991
2.62,267.243,12.6546,275.099,30.6723,-110.556,4000,-179.993
2.64,266.697,12.6546,275.644,27.2723,-170,-2972.18,-179.995
2.66,266.216,12.6545,276.126,24.0723,-160,500.002,-179.997
2.68,265.796,12.6545,276.545,20.9611,-155.556,222.181,-179.998
2.7,265.404,12.6545,276.937,19.6,-68.0563,4375,-179.998
2.72,265.231,12.6545,277.11,8.66113,-546.944,-23944.4,-179.999
2.74,265.058,12.6545,277.283,8.65,-0.556324,27319.4,-179.999
2.76,264.885,12.6545,277.456,8.65,9.59233e-12,27.8162,-179.999
2.78,264.712,12.6545,277.629,8.65,-9.59233e-12,-9.59233e-10,-179.999
2.8,264.538,12.6545,277.803,8.7,2.5,125,-179.999
