"time","x","y","position","velocity","acceleration","jerk","heading"
0,425.468,41.4319,0,0,0,0,180
0.02,425.295,41.4319,0.172738,8.63691,431.846,21592.3,179.999
0.04,425.123,41.4319,0.345476,8.63691,1.42375e-10,-21592.3,179.998
0.06,424.95,41.4319,0.518215,8.63691,4.27036e-10,1.42331e-08,179.997
0.08,424.777,41.4319,0.690953,8.63691,5.69145e-10,7.10543e-09,179.996
0.1,424.603,41.4319,0.864691,8.68691,2.5,125,179.995
0.12,424.376,41.4319,1.09243,11.3869,135,6625,179.994
0.14,423.958,41.432,1.50964,20.8607,473.691,16934.6,179.991
0.16,423.54,41.432,1.9276,20.8976,1.84547,-23592.3,179.987
0.18,423.018,41.4322,2.44976,26.1084,260.537,12934.6,179.98
0.2,422.476,41.4324,2.99241,27.1322,51.191,-10467.3,179.971
0.22,421.833,41.4328,3.635,32.1298,249.882,9934.56,179.958
0.24,421.151,41.4333,4.31682,34.0906,98.0367,-7592.28,179.942
0.26,420.415,41.4342,5.05284,36.8013,135.537,1875.04,179.923
0.28,419.611,41.4354,5.85677,40.1966,169.765,1711.37,179.896
0.3,418.746,41.4372,6.72166,43.2443,152.384,-869.022,179.865
0.32,417.827,41.4396,7.64119,45.9766,136.613,-788.558,179.825
0.34,416.863,41.4429,8.60489,48.1851,110.424,-1309.46,179.778
0.36,415.881,41.4471,9.58677,49.0936,45.4278,-3249.81,179.724
0.38,414.897,41.4523,10.5708,49.2022,5.43042,-1999.87,179.663
0.4,413.915,41.4586,11.553,49.1109,-4.5654,-499.791,179.595
0.42,412.935,41.4662,12.5334,49.0197,-4.55858,0.341234,179.52
0.44,411.956,41.475,13.512,48.9286,-4.55435,0.211257,179.438
0.46,410.979,41.4853,14.489,48.8509,-3.88779,33.328,179.35
0.48,410.004,41.4971,15.4642,48.7601,-4.53893,-32.5568,179.255
0.5,409.031,41.5107,16.4376,48.6697,-4.52299,0.796759,179.153
0.52,408.058,41.5259,17.4102,48.6317,-1.8969,131.305,179.048
0.54,407.086,41.5429,18.3821,48.5939,-1.8888,0.404859,178.94
0.56,406.115,41.5618,19.3538,48.5826,-0.566876,66.0965,178.831
0.58,405.144,41.5826,20.3253,48.5739,-0.433954,6.6461,178.725
0.6,404.17,41.6052,21.2988,48.6783,5.21774,282.585,178.623
0.62,403.195,41.6295,22.2745,48.785,5.33817,6.0212,178.529
0.64,402.218,41.6553,23.2521,48.881,4.79651,-27.083,178.446
0.66,401.236,41.6826,24.2342,49.103,11.1024,315.296,178.376
0.68,400.25,41.7111,25.2205,49.314,10.5499,-27.6258,178.322
0.7,399.261,41.7405,26.21,49.4747,8.03165,-125.913,178.284
0.72,398.267,41.7706,27.2041,49.7088,11.7069,183.76,178.26
0.74,397.271,41.801,28.201,49.8424,6.67933,-251.376,178.25
0.76,396.27,41.8316,29.2028,50.0889,12.3239,282.231,178.255
0.78,395.267,41.8621,30.2064,50.1824,4.6778,-382.307,178.271
0.8,394.26,41.8924,31.2134,50.3499,8.37424,184.822,178.296
0.82,393.253,41.922,32.2212,50.3905,2.03053,-317.186,178.328
0.84,392.243,41.9512,33.2313,50.5052,5.73499,185.223,178.365
0.86,391.232,41.9797,34.2427,50.5697,3.22255,-125.622,178.407
0.88,390.221,42.0074,35.2536,50.5447,-1.24564,-223.41,178.451
0.9,389.209,42.0344,36.266,50.62,3.76074,250.319,178.497
0.92,388.197,42.0606,37.2784,50.6188,-0.0590421,-190.989,178.543
0.94,387.186,42.0859,38.2898,50.5678,-2.55,-124.548,178.589
0.96,386.175,42.1104,39.3018,50.6038,1.8016,217.58,178.634
0.98,385.163,42.1341,40.3136,50.5896,-0.708146,-125.487,178.678
1,384.153,42.1571,41.3241,50.5258,-3.19418,-124.302,178.721
1.02,383.142,42.1792,42.3351,50.5487,1.14577,216.998,178.762
1.04,382.132,42.2007,43.3455,50.5218,-1.34139,-124.358,178.801
1.06,381.122,42.2215,44.3554,50.4949,-1.34565,-0.213103,178.838
1.08,380.113,42.2416,45.3648,50.468,-1.34443,0.0612067,178.873
1.1,379.106,42.2612,46.3724,50.3783,-4.48758,-157.158,178.905
1.12,378.099,42.2801,47.3796,50.3623,-0.801608,184.299,178.932
1.14,377.096,42.2986,48.3824,50.1395,-11.1405,-516.943,178.942
1.16,376.095,42.3172,49.3834,50.0478,-4.58149,327.948,178.945
1.18,375.094,42.3355,50.3846,50.0607,0.6453,261.339,178.949
1.2,374.094,42.3538,51.3848,50.0107,-2.49958,-157.244,178.953
1.22,373.093,42.3721,52.386,50.0607,2.49958,249.958,178.957
1.24,372.092,42.3903,53.3872,50.0606,-0.00456174,-125.207,178.961
1.26,371.091,42.4084,54.3887,50.0735,0.64545,32.5006,178.966
1.28,370.09,42.4265,55.3899,50.0605,-0.649987,-64.7718,178.97
1.3,369.088,42.4444,56.3914,50.0735,0.6455,64.7743,178.975
1.32,368.088,42.4622,57.3918,50.0234,-2.50407,-157.478,178.98
1.34,367.087,42.48,58.3933,50.0734,2.4996,250.183,178.985
1.36,366.085,42.4978,59.395,50.0864,0.650062,-92.4771,178.991
1.38,365.084,42.5153,60.3965,50.0731,-0.663297,-65.6679,178.996
1.4,364.082,42.5328,61.3982,50.0862,0.654498,65.8898,179.002
1.42,363.08,42.5502,62.4002,50.0991,0.6458,-0.434935,179.009
1.44,362.079,42.5675,63.4019,50.086,-0.654498,-65.0149,179.015
1.46,361.078,42.5846,64.4029,50.0489,-1.85373,-59.9618,179.022
1.48,360.076,42.6016,65.4049,50.0989,2.49537,217.455,179.029
1.5,359.074,42.6186,66.4069,50.0988,-0.00423689,-124.98,179.036
1.52,358.073,42.6354,67.4088,50.0987,-0.0042119,0.00124937,179.043
1.54,357.07,42.652,68.4111,50.1116,0.64615,32.5181,179.051
1.56,356.068,42.6686,69.4133,50.1115,-0.00413693,-32.5143,179.059
1.58,355.066,42.685,70.4155,50.1114,-0.00411195,0.00124907,179.067
1.6,354.065,42.7012,71.417,50.0744,-1.85332,-92.4605,179.076
1.62,353.063,42.7173,72.4195,50.1242,2.49162,217.247,179.085
1.64,352.06,42.7332,73.422,50.1241,-0.00398699,-124.78,179.094
1.66,351.058,42.7491,74.4247,50.1371,0.650536,32.7262,179.104
1.68,350.055,42.7646,75.4275,50.1369,-0.0117361,-33.1136,179.114
1.7,349.052,42.78,76.4302,50.1368,-0.00386203,0.393701,179.124
1.72,348.05,42.7953,77.4329,50.1367,-0.0076491,-0.189354,179.134
1.74,347.047,42.8103,78.4359,50.1496,0.646949,32.7299,179.145
1.76,346.044,42.8252,79.4392,50.1626,0.647049,0.00499836,179.157
1.78,345.042,42.8398,80.4412,50.0993,-3.16158,-190.432,179.168
1.8,344.038,42.8544,81.4447,50.1754,3.80509,348.334,179.181
1.82,343.035,42.8685,82.4479,50.162,-0.668797,-223.695,179.193
1.84,342.032,42.8826,83.4514,50.1751,0.650986,65.9892,179.206
1.86,341.028,42.8964,84.4549,50.1749,-0.00694934,-32.8968,179.219
1.88,340.025,42.91,85.4587,50.1878,0.644262,32.5606,179.233
1.9,339.021,42.9232,86.4624,50.1876,-0.0100116,-32.7137,179.247
1.92,338.017,42.9363,87.4664,50.2006,0.647949,32.898,179.262
1.94,337.013,42.9491,88.4704,50.2004,-0.00644947,-32.7199,179.277
1.96,336.009,42.9617,89.4744,50.2003,-0.00948673,-0.151863,179.292
1.98,335.005,42.9739,90.4787,50.2132,0.645237,32.7362,179.308
2,334.002,42.9859,91.482,50.163,-2.50886,-157.705,179.324
2.02,332.998,42.9976,92.4865,50.226,3.14842,282.864,179.341
2.04,331.993,43.009,93.491,50.2257,-0.0114992,-157.996,179.358
2.06,330.988,43.0201,94.4958,50.2387,0.648899,33.0199,179.376
2.08,329.984,43.0309,95.5005,50.2385,-0.0108993,-32.9899,179.394
2.1,328.979,43.0413,96.5056,50.2514,0.646586,32.8743,179.413
2.12,327.974,43.0515,97.5103,50.2382,-0.662186,-65.4386,179.431
2.14,326.969,43.0613,98.5156,50.2642,1.30153,98.186,179.451
2.16,325.964,43.0708,99.5206,50.2509,-0.664098,-98.2816,179.47
2.18,324.959,43.0799,100.526,50.2639,0.647561,65.583,179.49
2.2,323.953,43.0887,101.531,50.2637,-0.00889965,-32.823,179.51
2.22,322.948,43.0971,102.537,50.2767,0.648086,32.8493,179.531
2.24,321.942,43.1051,103.542,50.2765,-0.00819972,-32.8143,179.552
2.26,320.937,43.1128,104.548,50.2763,-0.00779977,0.0199973,179.573
2.28,319.931,43.1201,105.553,50.2762,-0.00558734,0.110621,179.594
2.3,318.926,43.1271,106.559,50.2761,-0.00709981,-0.0756236,179.615
2.32,317.92,43.1336,107.565,50.289,0.647799,32.7449,179.637
2.34,316.915,43.1398,108.57,50.2759,-0.659261,-65.353,179.658
2.36,315.909,43.1457,109.576,50.2757,-0.00599988,32.663,179.679
2.38,314.903,43.1511,110.581,50.2887,0.648899,32.7449,179.701
2.4,313.898,43.1561,111.587,50.2755,-0.659698,-65.4298,179.722
2.42,312.892,43.1608,112.592,50.2754,-0.00363746,32.803,179.743
2.44,311.887,43.1652,113.598,50.2754,-0.00449995,-0.0431246,179.764
2.46,310.882,43.1691,114.603,50.2622,-0.658598,-32.7049,179.784
2.48,309.876,43.1727,115.608,50.2621,-0.00281247,32.7893,179.804
2.5,308.871,43.1759,116.614,50.2621,-0.00339999,-0.0293763,179.824
2.52,307.866,43.1788,117.619,50.2489,-0.656786,-32.6693,179.843
2.54,306.861,43.1815,118.624,50.2489,-0.0020625,32.7362,179.862
2.56,305.856,43.1838,119.628,50.2358,-0.656336,-32.7137,179.88
2.58,304.852,43.1857,120.633,50.2357,-0.00209999,32.7118,179.898
2.6,303.848,43.1873,121.637,50.2095,-1.31031,-65.4105,179.914
2.62,302.843,43.1887,122.641,50.2095,-0.000749998,65.478,179.93
2.64,301.839,43.1898,123.646,50.2095,-0.000937493,-0.00937475,179.946
2.66,300.835,43.1906,124.649,50.1833,-1.30971,-65.4386,179.96
2.68,299.832,43.1911,125.653,50.1833,-0.000487525,65.4611,179.974
2.7,298.828,43.1915,126.656,50.1702,-0.654611,-32.7062,179.987
2.72,297.825,43.1916,127.659,50.1571,-0.654686,-0.00374993,179.999
2.74,296.822,43.1915,128.662,50.144,-0.654498,0.00937431,-179.99
2.76,295.82,43.1912,129.665,50.144,9.99987e-05,32.7299,-179.979
2.78,294.817,43.1908,130.668,50.1309,-0.654411,-32.7255,-179.969
2.8,293.815,43.1901,131.67,50.1047,-1.30858,-32.7087,-179.961
2.82,292.812,43.1894,132.672,50.1178,0.654498,98.1541,-179.952
2.84,291.811,43.1885,133.674,50.0917,-1.3086,-98.1548,-179.945
2.86,290.809,43.1874,134.676,50.0786,-0.653998,32.7299,-179.939
2.88,289.807,43.1863,135.677,50.0786,1.46397e-08,32.6999,-179.933
2.9,288.806,43.1851,136.679,50.0655,-0.654211,-32.7105,-179.928
2.92,287.805,43.1838,137.68,50.0655,0.0003125,32.7262,-179.923
2.94,286.804,43.1824,138.681,50.0524,-0.654161,-32.7237,-179.919
2.96,285.803,43.181,139.682,50.0393,-0.654498,-0.016875,-179.916
2.98,284.802,43.1795,140.683,50.0393,0.000362501,32.743,-179.913
3,283.802,43.1779,141.683,50.0262,-0.654111,-32.7237,-179.911
3.02,282.801,43.1764,142.683,50.0131,-0.654886,-0.0387498,-179.91
3.04,281.801,43.1748,143.684,50.0132,0.000387501,32.7637,-179.909
3.06,280.801,43.1732,144.684,50.0132,2.2915e-10,-0.019375,-179.908
3.08,279.801,43.1716,145.684,50.0001,-0.654498,-32.7249,-179.908
3.1,278.801,43.17,146.684,50.0001,0,32.7249,-179.908
3.12,277.801,43.1684,147.684,49.987,-0.654498,-32.7249,-179.909
3.14,276.801,43.1668,148.684,50.0001,0.654498,65.4498,-179.909
3.16,275.802,43.1652,149.683,49.9739,-1.309,-98.1748,-179.911
3.18,274.802,43.1637,150.683,49.987,0.654111,98.1554,-179.912
3.2,273.802,43.1621,151.682,49.9739,-0.654111,-65.4111,-179.914
3.22,272.803,43.1606,152.682,49.9739,-0.000387504,32.6862,-179.916
3.24,271.804,43.1592,153.681,49.9739,-0.000362498,0.00125027,-179.918
3.26,270.804,43.1578,154.681,49.9739,-1.34577e-09,0.0181248,-179.92
3.28,269.805,43.1564,155.68,49.9739,2.49756e-10,7.97762e-08,-179.922
3.3,268.805,43.1551,156.679,49.9608,-0.654836,-32.7418,-179.925
3.32,267.806,43.1538,157.679,49.9739,0.654498,65.4667,-179.927
3.34,266.807,43.1525,158.678,49.9608,-0.654498,-65.4498,-179.93
3.36,265.807,43.1513,159.677,49.9608,-0.000312502,32.7093,-179.933
3.38,264.808,43.1502,160.677,49.9608,-0.000287498,0.00125021,-179.936
3.4,263.809,43.1491,161.676,49.9608,-1.87832e-09,0.0143748,-179.939
3.42,262.81,43.1481,162.675,49.9608,-0.000262498,-0.0131248,-179.942
3.44,261.811,43.1471,163.674,49.9608,-1.35856e-09,0.0131248,-179.945
3.46,260.811,43.1461,164.673,49.9608,4.04619e-09,2.70237e-07,-179.948
3.48,259.812,43.1452,165.673,49.9608,-0.000237504,-0.0118754,-179.951
3.5,258.813,43.1444,166.672,49.9607,-0.000212499,0.00125022,-179.954
3.52,257.814,43.1436,167.671,49.9607,-1.76215e-10,0.010625,-179.957
3.54,256.815,43.1429,168.67,49.9607,-0.0001875,-0.00937499,-179.96
3.56,255.815,43.1422,169.669,49.9607,2.72138e-10,0.00937502,-179.963
3.58,254.816,43.1416,170.669,49.9607,-0.0001625,-0.00812503,-179.966
3.6,253.817,43.141,171.668,49.9738,0.654498,32.733,-179.968
3.62,252.817,43.1405,172.667,49.9607,-0.654636,-65.4567,-179.971
3.64,251.818,43.14,173.667,49.9607,-5.3717e-10,32.7318,-179.974
3.66,250.819,43.1396,174.666,49.9738,0.654386,32.7193,-179.976
3.68,249.82,43.1392,175.665,49.9607,-0.654498,-65.4442,-179.979
3.7,248.82,43.1389,176.665,49.9738,0.654411,65.4455,-179.981
3.72,247.821,43.1385,177.664,49.9738,8.75032e-05,-32.7162,-179.983
3.74,246.821,43.1383,178.663,49.9607,-0.654648,-32.7368,-179.986
3.76,245.822,43.138,179.663,49.9738,0.654561,65.4605,-179.988
3.78,244.822,43.1378,180.662,49.9738,-6.25035e-05,-32.7312,-179.99
3.8,243.823,43.1377,181.662,49.9869,0.654461,32.7262,-179.991
3.82,242.83,43.1375,182.655,49.6238,-18.1545,-940.446,-179.993
3.84,241.867,43.1374,183.617,48.1369,-74.3455,-2809.55,-179.994
3.86,240.959,43.1374,184.526,45.4238,-135.655,-3065.45,-179.996
3.88,240.109,43.1373,185.376,42.4869,-146.845,-559.549,-179.997
3.9,239.316,43.1373,186.169,39.65,-141.846,249.999,-179.997
3.92,238.582,43.1372,186.902,36.6869,-148.154,-315.448,-179.998
3.94,237.925,43.1372,187.56,32.8869,-190,-2092.28,-179.999
3.96,237.311,43.1372,188.174,30.7,-109.346,4032.73,-179.999
3.98,236.766,43.1372,188.719,27.25,-172.5,-3157.72,-179.999
4,236.283,43.1372,189.202,24.1369,-155.654,842.275,-180
4.02,235.864,43.1372,189.621,20.95,-159.346,-184.55,-180
4.04,235.469,43.1372,190.016,19.75,-60,4967.28,-180
4.06,235.296,43.1372,190.189,8.65,-555,-24750,-180
4.08,235.123,43.1372,190.362,8.65,-1.91847e-11,27750,-180
4.1,234.95,43.1372,190.535,8.65,1.91847e-11,1.91847e-09,-180
4.12,234.776,43.1372,190.709,8.7,2.5,125,-180
4.14,234.603,43.1372,190.882,8.65,-2.5,-250,-180
