"time","x","y","position","velocity","acceleration","jerk","heading"
0,425.468,11.4319,0,0,0,0,180
0.02,425.295,11.4319,0.173262,8.66309,433.154,21657.7,179.999
0.04,425.121,11.4319,0.346524,8.66309,-1.41842e-10,-21657.7,179.998
0.06,424.948,11.4319,0.519785,8.66309,-4.25615e-10,-1.41887e-08,179.997
0.08,424.775,11.4319,0.693047,8.66309,-5.67724e-10,-7.10543e-09,179.996
0.1,424.601,11.4319,0.867309,8.71309,2.5,125,179.995
0.12,424.372,11.4319,1.09557,11.4131,135,6625,179.994
0.14,423.954,11.432,1.51436,20.9393,476.309,17065.5,179.991
0.16,423.534,11.432,1.9344,21.0024,3.15447,-23657.7,179.987
0.18,423.008,11.4322,2.46024,26.2916,264.464,13065.5,179.98
0.2,422.46,11.4324,3.00759,27.3678,53.809,-10532.7,179.971
0.22,421.811,11.4328,3.657,32.4702,255.118,10065.5,179.958
0.24,421.121,11.4333,4.34718,34.5094,101.964,-7657.73,179.942
0.26,420.375,11.4342,5.09316,37.2987,139.464,1875.04,179.923
0.28,419.557,11.4354,5.91123,40.9035,180.237,2038.62,179.896
0.3,418.676,11.4372,6.79235,44.0559,157.62,-1130.82,179.865
0.32,417.735,11.4398,7.73282,47.0238,148.394,-461.308,179.825
0.34,416.747,11.4431,8.72113,49.4155,119.587,-1440.36,179.778
0.36,415.737,11.4475,9.73128,50.5073,54.5907,-3249.81,179.724
0.38,414.721,11.4529,10.7473,50.7992,14.5934,-1999.87,179.663
0.4,413.703,11.4594,11.7651,50.8911,4.59758,-499.791,179.595
0.42,412.683,11.4672,12.7847,50.9832,4.6044,0.341236,179.52
0.44,411.662,11.4764,13.8063,51.0754,4.60862,0.211206,179.438
0.46,410.639,11.4873,14.8294,51.1547,3.96619,-32.1218,179.35
0.48,409.614,11.4997,15.8543,51.2472,4.62405,32.893,179.255
0.5,408.587,11.5139,16.8811,51.34,4.63998,0.796769,179.153
0.52,407.56,11.5301,17.9087,51.3806,2.03009,-130.495,179.048
0.54,406.532,11.5481,18.9371,51.4214,2.03818,0.404841,178.94
0.56,405.503,11.568,19.9659,51.4362,0.742121,-64.8032,178.831
0.58,404.476,11.59,20.9928,51.349,-4.36094,-255.153,178.725
0.6,403.45,11.6138,22.0198,51.3486,-0.0182404,217.135,178.623
0.62,402.425,11.6393,23.0447,51.246,-5.1338,-255.778,178.529
0.64,401.404,11.6663,24.0658,51.0539,-9.60245,-223.433,178.446
0.66,400.386,11.6946,25.0845,50.9356,-5.91453,184.396,178.376
0.68,399.372,11.7239,26.0991,50.7277,-10.394,-223.975,178.322
0.7,398.363,11.7539,27.1085,50.4695,-12.9123,-125.913,178.284
0.72,397.357,11.7844,28.1152,50.3371,-6.6191,314.66,178.26
0.74,396.355,11.815,29.1173,50.1042,-11.6466,-251.376,178.25
0.76,395.356,11.8456,30.1165,49.958,-7.31101,216.781,178.255
0.78,394.361,11.8757,31.1117,49.7635,-9.72116,-120.508,178.271
0.8,393.368,11.9056,32.1056,49.6954,-3.40673,315.722,178.296
0.82,392.377,11.9348,33.0967,49.5527,-7.13245,-186.286,178.328
0.84,391.387,11.9634,34.0874,49.5365,-0.809995,316.123,178.365
0.86,390.398,11.9913,35.0768,49.4701,-3.32243,-125.622,178.407
0.88,389.411,12.0184,36.0647,49.3928,-3.86364,-27.0601,178.451
0.9,388.423,12.0448,37.053,49.4157,1.14274,250.319,178.497
0.92,387.435,12.0702,38.0413,49.4145,-0.0590422,-60.0893,178.543
0.94,386.448,12.0949,39.0285,49.3635,-2.55,-124.548,178.589
0.96,385.459,12.119,40.0171,49.4257,3.11059,283.03,178.634
0.98,384.471,12.1421,41.0058,49.4377,0.600851,-125.487,178.678
1,383.483,12.1645,41.9938,49.4,-1.88518,-124.302,178.721
1.02,382.494,12.1862,42.9833,49.4753,3.76376,282.447,178.762
1.04,381.504,12.2073,43.9733,49.5008,1.2766,-124.358,178.801
1.06,380.514,12.2277,44.9639,49.5263,1.27234,-0.213098,178.838
1.08,379.523,12.2474,45.9549,49.5518,1.27357,0.0612154,178.873
1.1,378.532,12.2666,46.9457,49.5405,-0.560592,-91.7079,178.905
1.12,377.539,12.2853,47.9388,49.6554,5.74338,315.198,178.932
1.14,376.542,12.3038,48.9364,49.8777,11.1125,268.456,178.942
1.16,375.543,12.3222,49.9358,49.9693,4.58149,-326.55,178.945
1.18,374.544,12.3405,50.9349,49.956,-0.663697,-262.259,178.949
1.2,373.546,12.3588,51.933,49.906,-2.49958,-91.7942,178.953
1.22,372.547,12.3771,52.9321,49.956,2.49958,249.958,178.957
1.24,371.548,12.3953,53.9312,49.9559,-0.00456174,-125.207,178.961
1.26,370.549,12.4132,54.9301,49.9426,-0.663547,-32.9493,178.966
1.28,369.55,12.4313,55.9292,49.9558,0.65901,66.1279,178.97
1.3,368.552,12.4492,56.9281,49.9426,-0.663497,-66.1254,178.975
1.32,367.554,12.467,57.9259,49.8925,-2.50407,-92.0284,178.98
1.34,366.555,12.4848,58.9248,49.9425,2.4996,250.183,178.985
1.36,365.557,12.5024,59.9233,49.9293,-0.658935,-157.927,178.991
1.38,364.558,12.5199,60.9222,49.9422,0.6457,65.2318,178.996
1.4,363.56,12.5374,61.9208,49.9291,-0.654498,-65.0099,179.002
1.42,362.562,12.5546,62.9191,49.9159,-0.663197,-0.434934,179.009
1.44,361.563,12.5719,63.9177,49.9289,0.654498,65.8848,179.015
1.46,360.566,12.589,64.915,49.8657,-3.16273,-190.861,179.022
1.48,359.568,12.606,65.9133,49.9156,2.49537,282.905,179.029
1.5,358.57,12.6228,66.9116,49.9155,-0.00423689,-124.98,179.036
1.52,357.571,12.6396,67.9099,49.9154,-0.0042119,0.00124956,179.043
1.54,356.574,12.6562,68.908,49.9022,-0.662847,-32.9318,179.051
1.56,355.576,12.6726,69.906,49.9021,-0.00413694,32.9355,179.059
1.58,354.578,12.689,70.904,49.902,-0.00411194,0.00124991,179.067
1.6,353.581,12.7052,71.9008,49.8388,-3.16232,-157.91,179.076
1.62,352.583,12.7211,72.8986,49.8886,2.49162,282.697,179.085
1.64,351.586,12.737,73.8964,49.8885,-0.003987,-124.78,179.094
1.66,350.588,12.7527,74.8939,49.8753,-0.65846,-32.7237,179.104
1.68,349.591,12.7682,75.8914,49.8751,-0.0117361,32.3362,179.114
1.7,348.594,12.7836,76.8889,49.875,-0.00386205,0.393701,179.124
1.72,347.596,12.7987,77.8864,49.8749,-0.00764911,-0.189353,179.134
1.74,346.599,12.8137,78.8836,49.8616,-0.662048,-32.7199,179.145
1.76,345.602,12.8284,79.8806,49.8484,-0.661948,0.00499827,179.157
1.78,344.606,12.843,80.8768,49.8113,-1.85258,-59.5318,179.168
1.8,343.61,12.8574,81.8735,49.8351,1.1871,151.984,179.181
1.82,342.613,12.8715,82.8704,49.8479,0.6402,-27.345,179.193
1.84,341.616,12.8854,83.8671,49.8347,-0.658011,-64.9105,179.206
1.86,340.62,12.8992,84.8638,49.8346,-0.00694932,32.5531,179.219
1.88,339.623,12.9126,85.8603,49.8213,-0.664735,-32.8893,179.233
1.9,338.627,12.9258,86.8567,49.8211,-0.0100116,32.7362,179.247
1.92,337.631,12.9387,87.8528,49.8079,-0.661048,-32.5518,179.262
1.94,336.635,12.9515,88.849,49.8077,-0.00644945,32.7299,179.277
1.96,335.639,12.9639,89.8451,49.8076,-0.00948675,-0.151865,179.292
1.98,334.643,12.9761,90.841,49.7943,-0.66376,-32.7137,179.308
2,333.648,12.9879,91.8359,49.7441,-2.50886,-92.255,179.324
2.02,332.652,12.9996,92.8315,49.7809,1.83942,217.414,179.341
2.04,331.657,13.0108,93.8271,49.7807,-0.0114992,-92.5462,179.358
2.06,330.662,13.0219,94.8225,49.7675,-0.660098,-32.4299,179.376
2.08,329.666,13.0325,95.8178,49.7672,-0.0108994,32.4599,179.394
2.1,328.671,13.0429,96.8129,49.754,-0.662411,-32.5756,179.413
2.12,327.676,13.0529,97.8083,49.7669,0.646811,65.4611,179.431
2.14,326.681,13.0627,98.8031,49.7406,-1.31646,-98.1635,179.451
2.16,325.686,13.072,99.7981,49.7535,0.644899,98.0679,179.47
2.18,324.691,13.0811,100.793,49.7403,-0.661436,-65.3167,179.49
2.2,323.697,13.0897,101.788,49.7401,-0.00889965,32.6268,179.51
2.22,322.702,13.0981,102.782,49.7269,-0.660911,-32.6006,179.531
2.24,321.708,13.1061,103.777,49.7267,-0.00819973,32.6355,179.552
2.26,320.713,13.1136,104.771,49.7266,-0.00779975,0.0199989,179.573
2.28,319.719,13.1209,105.766,49.7264,-0.00558735,0.11062,179.594
2.3,318.724,13.1277,106.76,49.7263,-0.00709983,-0.075624,179.615
2.32,317.73,13.1342,107.755,49.7131,-0.661198,-32.7049,179.637
2.34,316.735,13.1404,108.749,49.7261,0.649736,65.5467,179.658
2.36,315.741,13.1461,109.744,49.726,-0.00599991,-32.7868,179.679
2.38,314.747,13.1515,110.738,49.7127,-0.660098,-32.7049,179.701
2.4,313.752,13.1565,111.732,49.7257,0.649299,65.4698,179.722
2.42,312.758,13.1612,112.727,49.7257,-0.00363746,-32.6468,179.743
2.44,311.763,13.1654,113.721,49.7256,-0.00449996,-0.0431251,179.764
2.46,310.768,13.1693,114.716,49.7386,0.650399,32.7449,179.784
2.48,309.774,13.1729,115.711,49.7385,-0.00281249,-32.6605,179.804
2.5,308.779,13.1761,116.706,49.7385,-0.00339997,-0.0293737,179.824
2.52,307.784,13.179,117.701,49.7515,0.652211,32.7805,179.843
2.54,306.789,13.1815,118.696,49.7515,-0.00206249,-32.7137,179.862
2.56,305.794,13.1838,119.691,49.7645,0.652661,32.7362,179.88
2.58,304.798,13.1857,120.686,49.7645,-0.0021,-32.738,179.898
2.6,303.802,13.1873,121.682,49.7906,1.30768,65.4892,179.914
2.62,302.807,13.1887,122.678,49.7906,-0.00075,-65.4217,179.93
2.64,301.811,13.1898,123.674,49.7906,-0.000937505,-0.00937526,179.946
2.66,300.815,13.1906,124.67,49.8168,1.30828,65.4611,179.96
2.68,299.818,13.1911,125.667,49.8167,-0.000487475,-65.4386,179.974
2.7,298.822,13.1915,126.663,49.8298,0.654386,32.7437,179.987
2.72,297.825,13.1916,127.66,49.8429,0.654311,-0.00375007,179.999
2.74,296.828,13.1915,128.657,49.856,0.654498,0.00937569,-179.99
2.76,295.83,13.1912,129.654,49.856,0.000100001,-32.7199,-179.979
2.78,294.833,13.1908,130.652,49.8691,0.654586,32.7243,-179.969
2.8,293.835,13.1901,131.65,49.8953,1.30941,32.7412,-179.961
2.82,292.838,13.1894,132.647,49.8822,-0.654498,-98.1954,-179.952
2.84,291.839,13.1885,133.645,49.9084,1.3094,98.1948,-179.945
2.86,290.841,13.1874,134.644,49.9215,0.654998,-32.7199,-179.939
2.88,289.843,13.1863,135.642,49.9215,-1.46851e-08,-32.7499,-179.933
2.9,288.844,13.1851,136.641,49.9346,0.654786,32.7393,-179.928
2.92,287.845,13.1838,137.64,49.9346,0.0003125,-32.7237,-179.923
2.94,286.846,13.1824,138.639,49.9477,0.654836,32.7262,-179.919
2.96,285.847,13.181,139.638,49.9608,0.654498,-0.016875,-179.916
2.98,284.848,13.1795,140.637,49.9608,0.000362498,-32.7068,-179.913
3,283.848,13.1779,141.636,49.9739,0.654886,32.7262,-179.911
3.02,282.849,13.1764,142.636,49.987,0.654111,-0.0387501,-179.91
3.04,281.849,13.1748,143.636,49.987,0.000387498,-32.6862,-179.909
3.06,280.849,13.1732,144.636,49.987,-2.2915e-10,-0.0193749,-179.908
3.08,279.849,13.1716,145.636,50.0001,0.654498,32.7249,-179.908
3.1,278.849,13.17,146.636,50.0001,0,-32.7249,-179.908
3.12,277.849,13.1684,147.636,50.0132,0.654498,32.7249,-179.909
3.14,276.849,13.1668,148.636,50.0001,-0.654498,-65.4498,-179.909
3.16,275.848,13.1652,149.636,50.0262,1.309,98.1748,-179.911
3.18,274.848,13.1637,150.637,50.0131,-0.654886,-98.1941,-179.912
3.2,273.848,13.1621,151.637,50.0262,0.654886,65.4886,-179.914
3.22,272.847,13.1606,152.638,50.0262,-0.000387495,-32.7637,-179.916
3.24,271.846,13.1592,153.638,50.0262,-0.000362501,0.00124972,-179.918
3.26,270.846,13.1578,154.639,50.0262,1.45555e-09,0.0181251,-179.92
3.28,269.845,13.1564,155.639,50.0262,-3.60245e-10,-9.07896e-08,-179.922
3.3,268.845,13.1551,156.64,50.0393,0.654161,32.708,-179.925
3.32,267.844,13.1538,157.641,50.0262,-0.654498,-65.433,-179.927
3.34,266.843,13.1525,158.641,50.0393,0.654498,65.4498,-179.93
3.36,265.843,13.1513,159.642,50.0393,-0.000312497,-32.7405,-179.933
3.38,264.842,13.1502,160.643,50.0393,-0.000287502,0.00124978,-179.936
3.4,263.841,13.1491,161.644,50.0393,1.87441e-09,0.0143752,-179.939
3.42,262.84,13.1481,162.645,50.0393,-0.000262501,-0.0131252,-179.942
3.44,261.839,13.1471,163.645,50.0393,1.35643e-09,0.0131251,-179.945
3.46,260.839,13.1461,164.646,50.0393,-4.03979e-09,-2.69811e-07,-179.948
3.48,259.838,13.1452,165.647,50.0393,-0.000237496,-0.0118746,-179.951
3.5,258.837,13.1444,166.648,50.0393,-0.0002125,0.00124978,-179.954
3.52,257.836,13.1436,167.649,50.0393,1.75859e-10,0.010625,-179.957
3.54,256.835,13.1429,168.649,50.0393,-0.0001875,-0.009375,-179.96
3.56,255.835,13.1422,169.65,50.0393,-2.71427e-10,0.00937498,-179.963
3.58,254.834,13.1416,170.651,50.0393,-0.0001625,-0.00812497,-179.966
3.6,253.833,13.141,171.651,50.0262,-0.654498,-32.7168,-179.968
3.62,252.833,13.1405,172.652,50.0393,0.654361,65.443,-179.971
3.64,251.832,13.14,173.653,50.0393,5.35749e-10,-32.718,-179.974
3.66,250.831,13.1396,174.653,50.0262,-0.654611,-32.7305,-179.976
3.68,249.83,13.1392,175.654,50.0393,0.654498,65.4555,-179.979
3.7,248.83,13.1389,176.655,50.0262,-0.654586,-65.4542,-179.981
3.72,247.829,13.1385,177.655,50.0262,8.74968e-05,32.7337,-179.983
3.74,246.829,13.1383,178.656,50.0393,0.654348,32.713,-179.986
3.76,245.828,13.138,179.657,50.0262,-0.654436,-65.4392,-179.988
3.78,244.828,13.1378,180.657,50.0262,-6.24966e-05,32.7187,-179.99
3.8,243.827,13.1377,181.657,50.0131,-0.654536,-32.7237,-179.991
3.82,242.834,13.1375,182.651,49.6762,-16.8455,-809.546,-179.993
3.84,241.871,13.1374,183.614,48.1631,-75.6545,-2940.45,-179.994
3.86,240.961,13.1374,184.524,45.4762,-134.346,-2934.55,-179.996
3.88,240.111,13.1373,185.374,42.5131,-148.154,-690.448,-179.997
3.9,239.318,13.1373,186.167,39.65,-143.155,249.999,-179.997
3.92,238.584,13.1372,186.901,36.7131,-146.845,-184.549,-179.998
3.94,237.925,13.1372,187.56,32.9131,-190,-2157.73,-179.999
3.96,237.311,13.1372,188.174,30.7,-110.654,3967.28,-179.999
3.98,236.766,13.1372,188.719,27.25,-172.5,-3092.28,-179.999
4,236.283,13.1372,189.202,24.1631,-154.346,907.725,-180
4.02,235.864,13.1372,189.621,20.95,-160.654,-315.45,-180
4.04,235.469,13.1372,190.016,19.75,-60,5032.72,-180
4.06,235.296,13.1372,190.189,8.65,-555,-24750,-180
4.08,235.123,13.1372,190.362,8.65,-1.91847e-11,27750,-180
4.1,234.95,13.1372,190.535,8.65,1.91847e-11,1.91847e-09,-180
4.12,234.776,13.1372,190.709,8.7,2.5,125,-180
4.14,234.603,13.1372,190.882,8.65,-2.5,-250,-180
