"time","x","y","position","velocity","acceleration","jerk","heading"
0,425.5,12.4,0,0,0,0,180
0.02,425.309,12.4,0.190733,9.53665,476.833,23841.6,179.997
0.04,425.12,12.4,0.380466,9.48665,-2.5,-23966.6,179.994
0.06,424.929,12.4,0.571199,9.53665,2.5,250,179.991
0.08,424.738,12.4,0.761932,9.53665,-1.50058e-08,-125,179.988
0.1,424.547,12.4001,0.95291,9.54887,0.610931,30.5465,179.984
0.12,424.158,12.4002,1.34157,19.4333,494.219,24680.4,179.969
0.14,423.695,12.4005,1.80471,23.1566,186.165,-15402.7,179.948
0.16,423.153,12.4011,2.34677,27.1032,197.331,558.279,179.915
0.18,422.546,12.4021,2.95403,30.3632,162.999,-1716.6,179.873
0.2,421.836,12.4041,3.66416,35.5065,257.165,4708.31,179.807
0.22,421.064,12.4072,4.43645,38.6143,155.393,-5088.6,179.724
0.24,420.216,12.4119,5.28436,42.3957,189.067,1683.7,179.618
0.26,419.287,12.4191,6.21313,46.4384,202.138,653.567,179.484
0.28,418.275,12.4296,7.22523,50.6051,208.334,309.792,179.316
0.3,417.179,12.4445,8.32091,54.7838,208.934,29.964,179.109
0.32,416.001,12.4653,9.49966,58.9374,207.682,-62.5809,178.857
0.34,414.738,12.4937,10.7628,63.1546,210.858,158.816,178.555
0.36,413.392,12.5315,12.1097,67.3487,209.703,-57.7691,178.197
0.38,411.965,12.5813,13.537,71.3615,200.643,-452.984,177.786
0.4,410.439,12.6465,15.0642,76.364,250.121,2473.91,177.299
0.42,408.834,12.7296,16.6714,80.3559,199.597,-2526.24,176.75
0.44,407.134,12.8353,18.375,85.1837,241.393,2089.81,176.121
0.46,405.352,12.9666,20.1617,89.3354,207.581,-1690.61,175.428
0.48,403.482,13.1285,22.0385,93.8404,225.253,883.647,174.677
0.5,401.536,13.3232,23.9941,97.78,196.981,-1413.63,173.896
0.52,399.527,13.552,26.0164,101.112,166.581,-1519.99,173.133
0.54,397.467,13.8136,28.0929,103.826,135.741,-1542,172.44
0.56,395.376,14.1023,30.204,105.553,86.3434,-2469.89,171.902
0.58,393.273,14.4086,32.3295,106.274,36.0493,-2514.7,171.603
0.6,391.167,14.7215,34.4577,106.412,6.87718,-1458.61,171.586
0.62,389.061,15.0294,36.5861,106.421,0.450189,-321.349,171.863
0.64,386.948,15.3226,38.7197,106.678,12.8466,619.823,172.407
0.66,384.809,15.5941,40.8758,107.807,56.475,2181.42,173.162
0.68,382.624,15.8395,43.0746,109.938,106.527,2502.58,174.035
0.7,380.376,16.056,45.333,112.92,149.107,2129.03,174.956
0.72,378.049,16.2426,47.6673,116.716,189.784,2033.82,175.864
0.74,375.636,16.3982,50.0856,120.916,210.006,1011.13,176.724
0.76,373.134,16.5236,52.591,125.268,217.591,379.23,177.514
0.78,370.531,16.6203,55.195,130.204,246.798,1460.36,178.205
0.8,367.835,16.6904,57.8923,134.862,232.926,-693.609,178.785
0.82,365.13,16.7364,60.5979,135.284,21.0759,-10592.5,179.23
0.84,362.455,16.7651,63.2729,133.748,-76.7716,-4892.37,179.505
0.86,359.82,16.7841,65.9085,131.781,-98.3683,-1079.84,179.646
0.88,357.23,16.7988,68.4982,129.486,-114.761,-819.64,179.676
0.9,354.69,16.8138,71.0385,127.012,-123.683,-446.09,179.622
0.92,352.205,16.8327,73.523,124.228,-139.175,-774.609,179.489
0.94,349.774,16.8581,75.9538,121.539,-134.478,234.879,179.294
0.96,347.405,16.8921,78.3239,118.505,-151.686,-860.402,179.049
0.98,345.103,16.9356,80.6258,115.094,-170.551,-943.275,178.781
1,342.876,16.9881,82.854,111.408,-184.318,-688.366,178.525
1.02,340.731,17.0476,84.9998,107.292,-205.766,-1072.37,178.312
1.04,338.677,17.111,87.0545,102.735,-227.859,-1104.67,178.178
1.06,336.716,17.1747,89.0163,98.0878,-232.373,-225.686,178.13
1.08,334.849,17.2353,90.8845,93.4109,-233.848,-73.7479,178.17
1.1,333.07,17.2909,92.6642,88.9868,-221.203,632.247,178.277
1.12,331.371,17.34,94.364,84.9902,-199.829,1068.7,178.424
1.14,329.754,17.3821,95.9811,80.8523,-206.895,-353.324,178.598
1.16,328.208,17.4176,97.5282,77.3585,-174.691,1610.21,178.775
1.18,326.733,17.4469,99.0033,73.7513,-180.357,-283.301,178.948
1.2,325.326,17.4707,100.41,70.3556,-169.786,528.546,179.108
1.22,323.991,17.4898,101.746,66.7733,-179.117,-466.506,179.254
1.24,322.717,17.5048,103.019,63.6785,-154.738,1218.91,179.383
1.26,321.515,17.5165,104.222,60.1102,-178.418,-1183.97,179.497
1.28,320.385,17.5255,105.352,56.5289,-179.061,-32.1612,179.593
1.3,319.321,17.5321,106.415,53.1626,-168.317,537.21,179.678
1.32,318.325,17.537,107.411,49.7954,-168.359,-2.1317,179.748
1.34,317.399,17.5407,108.338,46.3418,-172.682,-216.139,179.806
1.36,316.538,17.5431,109.198,43.0137,-166.401,314.085,179.854
1.38,315.744,17.5449,109.993,39.7358,-163.895,125.265,179.892
1.4,315.039,17.546,110.698,35.2457,-224.505,-3030.49,179.921
1.42,314.397,17.5467,111.339,32.069,-158.836,3283.46,179.944
1.44,313.805,17.5472,111.932,29.6301,-121.946,1844.49,179.962
1.46,313.331,17.5475,112.405,23.6656,-298.224,-8813.91,179.973
1.48,312.876,17.5476,112.861,22.7778,-44.3893,12691.7,179.983
1.5,312.604,17.5477,113.133,13.6011,-458.835,-20722.3,179.987
1.52,312.414,17.5477,113.322,9.47557,-206.278,12627.8,179.989
1.54,312.225,17.5477,113.512,9.47557,-8.40554e-09,10313.9,179.991
1.56,312.036,17.5477,113.701,9.46335,-0.610865,-30.5433,179.994
1.58,311.847,17.5478,113.89,9.42557,-1.88907,-63.9102,179.996
