"time","x","y","position","velocity","acceleration","jerk","heading"
0,503.011,2.05288,0,0,0,0,179.818
0.02,502.869,2.05338,0.142048,7.1024,355.12,17756,179.814
0.04,502.727,2.05378,0.284834,7.1393,1.84469,-17663.8,179.811
0.06,502.584,2.05429,0.426882,7.1024,-1.84469,-184.469,179.807
0.08,502.442,2.05479,0.569668,7.13931,1.84549,184.509,179.804
0.1,502.3,2.05519,0.711716,7.10239,-1.84628,-184.589,179.8
0.12,502.157,2.05569,0.854502,7.13931,1.84628,184.628,179.797
0.14,502.015,2.0562,0.996551,7.1024,-1.84549,-184.589,179.793
0.16,501.684,2.05741,1.32774,16.5595,472.857,23735.1,179.777
0.18,501.337,2.05873,1.67419,17.3227,38.1552,-21735.1,179.76
0.2,500.992,2.06015,2.01965,17.2727,-2.49899,-2032.71,179.743
0.22,500.538,2.06229,2.47355,22.6953,271.132,13681.5,179.709
0.24,500.084,2.06464,2.92746,22.6954,0.00247146,-13556.5,179.675
0.26,499.563,2.06773,3.44861,26.0573,168.097,8404.74,179.621
0.28,499.019,2.07164,3.99259,27.1992,57.0935,-5550.19,179.56
0.3,498.408,2.07662,4.60308,30.5244,166.259,5458.28,179.478
0.32,497.774,2.08276,5.23767,31.7295,60.2583,-5300.04,179.388
0.34,497.082,2.09079,5.92925,34.579,142.476,4110.89,179.279
0.36,496.347,2.10076,6.66487,36.7811,110.103,-1618.67,179.147
0.38,495.57,2.11321,7.44176,38.8444,103.165,-346.871,178.995
0.4,494.75,2.12878,8.26171,40.9977,107.666,225.054,178.82
0.42,493.873,2.14828,9.13932,43.8805,144.139,1823.66,178.616
0.44,492.952,2.17225,10.0608,46.0753,109.737,-1720.11,178.386
0.46,491.983,2.20167,11.0296,48.4396,118.215,423.89,178.121
0.48,490.965,2.23753,12.0482,50.9299,124.519,315.186,177.823
0.5,489.901,2.28097,13.1137,53.2735,117.176,-367.15,177.492
0.52,488.785,2.33333,14.2309,55.8624,129.447,613.566,177.121
0.54,487.618,2.39597,15.3988,58.3954,126.651,-139.808,176.707
0.56,486.402,2.47073,16.6178,60.9486,127.66,50.4617,176.249
0.58,485.135,2.55919,17.8877,63.4963,127.383,-13.8679,175.748
0.6,483.818,2.66331,19.2089,66.0564,128.005,31.1079,175.2
0.62,482.442,2.78602,20.5904,69.0741,150.885,1144.01,174.594
0.64,481.018,2.92889,22.0216,71.5624,124.417,-1323.42,173.941
0.66,479.545,3.09406,23.5032,74.0784,125.799,69.1348,173.244
0.68,478.023,3.28429,25.037,76.6928,130.717,245.891,172.501
0.7,476.451,3.50218,26.6241,79.3555,133.14,121.123,171.714
0.72,474.839,3.74865,28.2553,81.5562,110.035,-1155.26,170.901
0.74,473.184,4.02627,29.9337,83.9211,118.241,410.335,170.071
0.76,471.495,4.33443,31.6501,85.8197,94.9324,-1165.44,169.242
0.78,469.778,4.67367,33.4003,87.5092,84.4722,-523.008,168.44
0.8,468.042,5.04093,35.175,88.7387,61.4786,-1149.68,167.689
0.82,466.292,5.43341,36.9678,89.6396,45.043,-821.782,167.038
0.84,464.544,5.8451,38.7642,89.8177,8.90765,-1806.77,166.514
0.86,462.801,6.26955,40.5584,89.7135,-5.21298,-706.032,166.151
0.88,461.073,6.6988,42.3381,88.9829,-36.5274,-1565.72,166.001
0.9,459.393,7.11757,44.0695,86.5692,-120.686,-4207.93,166.068
0.92,457.799,7.50992,45.7116,82.1076,-223.081,-5119.73,166.341
0.94,456.289,7.87122,47.2644,77.6369,-223.536,-22.7492,166.8
0.96,454.854,8.20055,48.7368,73.62,-200.843,1134.63,167.407
0.98,453.477,8.49955,50.1452,70.4225,-159.875,2048.4,168.117
1,452.159,8.76791,51.4904,67.2568,-158.288,79.3563,168.904
1.02,450.884,9.00872,52.7879,64.878,-118.94,1967.4,169.728
1.04,449.65,9.22312,54.0405,62.6297,-112.415,326.262,170.565
1.06,448.448,9.41391,55.2577,60.8592,-88.5265,1194.4,171.396
1.08,447.28,9.58228,56.4374,58.9872,-93.5962,-253.486,172.2
1.1,446.138,9.73087,57.5892,57.5863,-70.0457,1177.53,172.97
1.12,445.022,9.86107,58.7127,56.1765,-70.4907,-22.2519,173.697
1.14,443.935,9.9745,59.8058,54.6551,-76.0689,-278.91,174.376
1.16,442.872,10.0733,60.8734,53.3807,-63.7228,617.306,175.005
1.18,441.833,10.1585,61.9158,52.1211,-62.977,37.2914,175.584
1.2,440.821,10.2318,62.9303,50.724,-69.8592,-344.113,176.117
1.22,439.838,10.2943,63.9156,49.2632,-73.0368,-158.88,176.602
1.24,438.882,10.3472,64.8731,47.8749,-69.4164,181.02,177.038
1.26,437.953,10.392,65.8027,46.4786,-69.8141,-19.8845,177.43
1.28,437.056,10.4294,66.7013,44.933,-77.2807,-373.328,177.786
1.3,436.186,10.4604,67.5711,43.4915,-72.0729,260.388,178.106
1.32,435.346,10.486,68.4117,42.0299,-73.0806,-50.3849,178.388
1.34,434.539,10.5069,69.2186,40.3444,-84.276,-559.77,178.634
1.36,433.767,10.5237,69.9908,38.6063,-86.9066,-131.528,178.852
1.38,433.028,10.5372,70.7304,36.9802,-81.3034,280.158,179.045
1.4,432.319,10.5478,71.4395,35.4551,-76.2537,252.487,179.213
1.42,431.636,10.5562,72.1226,34.1547,-65.0212,561.624,179.358
1.44,431.005,10.5625,72.7534,31.5439,-130.538,-3275.85,179.477
1.46,430.402,10.5674,73.3567,30.1635,-69.0222,3075.79,179.583
1.48,429.827,10.571,73.9311,28.7201,-72.1674,-157.258,179.677
1.5,429.304,10.5736,74.4546,26.1733,-127.342,-2758.72,179.744
1.52,428.792,10.5756,74.9666,25.6017,-28.5804,4938.07,179.805
1.54,428.353,10.5769,75.4056,21.9503,-182.569,-7699.45,179.847
1.56,427.918,10.5778,75.8401,21.7265,-11.1929,8568.82,179.887
1.58,427.551,10.5783,76.2076,18.3704,-167.802,-7830.48,179.916
1.6,427.216,10.5787,76.5428,16.762,-80.4188,4369.19,179.938
1.62,426.881,10.579,76.8778,16.7489,-0.654755,3988.2,179.961
1.64,426.692,10.5791,77.0667,9.44528,-365.183,-18226.4,179.969
1.66,426.551,10.5791,77.2076,7.04764,-119.882,12265,179.973
1.68,426.411,10.5792,77.3478,7.01073,-1.84541,5901.83,179.976
1.7,426.271,10.5792,77.4878,6.99764,-0.654587,59.5413,179.98
1.72,426.13,10.5792,77.629,7.06073,3.1545,190.454,179.983
1.74,425.99,10.5793,77.769,6.99764,-3.15441,-315.445,179.987
1.76,425.848,10.5793,77.9102,7.06073,3.15441,315.441,179.99
