"time","x","y","position","velocity","acceleration","jerk","heading"
0,425.468,26.4319,0,0,150,0,180
0.02,425.295,26.4319,0.173205,3,150,0,179.998
0.04,425.122,26.4319,0.34641,6,150,0,179.996
0.06,424.949,26.4319,0.519615,9,150,0,179.994
0.08,424.776,26.4319,0.69282,12,150,0,179.992
0.1,424.602,26.432,0.866025,15,150,0,179.99
0.12,424.374,26.432,1.09471,18,150,0,179.985
0.14,423.956,26.4321,1.51286,21,150,0,179.972
0.16,423.537,26.4324,1.93102,24,150,0,179.959
0.18,423.013,26.4328,2.45505,27,150,0,179.933
0.2,422.468,26.4336,3,30,150,0,179.905
0.22,421.822,26.4348,3.64641,33,150,0,179.86
0.24,421.136,26.4368,4.33237,36,150,0,179.805
0.26,420.395,26.4397,5.07309,39,150,0,179.738
0.28,419.584,26.444,5.88465,42,150,0,179.65
0.3,418.711,26.45,6.75708,45,150,0,179.541
0.32,417.781,26.4584,7.68717,48,81.2826,0,179.411
0.34,416.805,26.4697,8.6633,49.6599,16.835,0,179.256
0.36,415.809,26.4841,9.65986,50,0,0,179.078
0.38,414.809,26.5017,10.6599,50,0,0,178.878
0.4,413.809,26.5231,11.6599,50,0,0,178.658
0.42,412.81,26.5484,12.6599,50,0,0,178.42
0.44,411.81,26.578,13.6599,50,0,0,178.161
0.46,410.811,26.6123,14.6599,50,0,0,177.881
0.48,409.811,26.6518,15.6599,50,0,0,177.582
0.5,408.812,26.6966,16.6599,50,0,0,177.26
0.52,407.814,26.7472,17.6599,50,0,0,176.922
0.54,406.815,26.8039,18.6599,50,0,0,176.562
0.56,405.817,26.867,19.6599,50,0,0,176.188
0.58,404.82,26.9368,20.6599,50,0,0,175.798
0.6,403.823,27.0135,21.6599,50,0,0,175.397
0.62,402.826,27.0972,22.6599,50,0,0,174.99
0.64,401.83,27.1881,23.6599,50,0,0,174.582
0.66,400.835,27.2861,24.6599,50,0,0,174.177
0.68,399.841,27.391,25.6599,50,0,0,173.784
0.7,398.847,27.5027,26.6599,50,0,0,173.411
0.72,397.854,27.6207,27.6599,50,0,0,173.057
0.74,396.862,27.7445,28.6599,50,0,0,172.744
0.76,395.87,27.8735,29.6599,50,0,0,172.471
0.78,394.879,28.0069,30.6599,50,0,0,172.236
0.8,393.888,28.1438,31.6599,50,0,0,172.062
0.82,392.898,28.2834,32.6599,50,0,0,171.939
0.84,391.908,28.4246,33.6599,50,0,0,171.865
0.86,390.918,28.5666,34.6599,50,0,0,171.856
0.88,389.928,28.7083,35.6599,50,0,0,171.895
0.9,388.938,28.8488,36.6599,50,0,0,171.984
0.92,387.948,28.9874,37.6599,50,0,0,172.124
0.94,386.957,29.1232,38.6599,50,0,0,172.297
0.96,385.966,29.2556,39.6599,50,0,0,172.515
0.98,384.974,29.384,40.6599,50,0,0,172.763
1,383.982,29.5077,41.6599,50,0,0,173.037
1.02,382.989,29.6266,42.6599,50,0,0,173.334
1.04,381.996,29.7401,43.6599,50,0,0,173.646
1.06,381.001,29.848,44.6599,50,0,0,173.976
1.08,380.007,29.9501,45.6599,50,0,0,174.315
1.1,379.011,30.0462,46.6599,50,0,0,174.665
1.12,378.015,30.1361,47.6599,50,0,0,175.021
1.14,377.019,30.2198,48.6599,50,0,0,175.381
1.16,376.022,30.2972,49.6599,50,0,0,175.745
1.18,375.024,30.3682,50.6599,50,0,0,176.112
1.2,374.026,30.4328,51.6599,50,0,0,176.481
1.22,373.028,30.4909,52.6599,50,0,0,176.851
1.24,372.029,30.5426,53.6599,50,0,0,177.223
1.26,371.03,30.5878,54.6599,50,0,0,177.597
1.28,370.031,30.6265,55.6599,50,0,0,177.972
1.3,369.032,30.6586,56.6599,50,0,0,178.35
1.32,368.032,30.6841,57.6599,50,0,0,178.731
1.34,367.032,30.7035,58.6599,50,0,0,178.948
1.36,366.032,30.7208,59.6599,50,0,0,179.036
1.38,365.033,30.7371,60.6599,50,0,0,179.099
1.4,364.033,30.7523,61.6599,50,0,0,179.16
1.42,363.033,30.7664,62.6599,50,0,0,179.216
1.44,362.033,30.7796,63.6599,50,0,0,179.27
1.46,361.033,30.7919,64.6599,50,0,0,179.321
1.48,360.033,30.8033,65.6599,50,0,0,179.37
1.5,359.033,30.8139,66.6599,50,0,0,179.416
1.52,358.033,30.8237,67.6599,50,0,0,179.46
1.54,357.033,30.8327,68.6599,50,0,0,179.501
1.56,356.033,30.8411,69.6599,50,0,0,179.54
1.58,355.033,30.8488,70.6599,50,0,0,179.577
1.6,354.033,30.8558,71.6599,50,0,0,179.612
1.62,353.033,30.8623,72.6599,50,0,0,179.645
1.64,352.033,30.8682,73.6599,50,0,0,179.676
1.66,351.033,30.8736,74.6599,50,0,0,179.705
1.68,350.033,30.8785,75.6599,50,0,0,179.732
1.7,349.033,30.883,76.6599,50,0,0,179.758
1.72,348.033,30.887,77.6599,50,0,0,179.782
1.74,347.033,30.8906,78.6599,50,0,0,179.804
1.76,346.033,30.8938,79.6599,50,0,0,179.824
1.78,345.033,30.8967,80.6599,50,0,0,179.843
1.8,344.033,30.8993,81.6599,50,0,0,179.86
1.82,343.033,30.9016,82.6599,50,0,0,179.875
1.84,342.033,30.9037,83.6599,50,0,0,179.889
1.86,341.033,30.9055,84.6599,50,0,0,179.901
1.88,340.033,30.9071,85.6599,50,0,0,179.912
1.9,339.033,30.9085,86.6599,50,0,0,179.921
1.92,338.033,30.9098,87.6599,50,0,0,179.929
1.94,337.033,30.911,88.6599,50,0,0,179.935
1.96,336.033,30.9121,89.6599,50,0,0,179.94
1.98,335.033,30.9131,90.6599,50,0,0,179.943
2,334.033,30.9141,91.6599,50,0,0,179.945
2.02,333.033,30.915,92.6599,50,0,0,179.945
2.04,332.033,30.916,93.6599,50,0,0,179.944
2.06,331.033,30.917,94.6599,50,0,0,179.941
2.08,330.033,30.918,95.6599,50,0,0,179.937
2.1,329.033,30.9192,96.6599,50,0,0,179.931
2.12,328.033,30.9204,97.6599,50,0,0,179.924
2.14,327.033,30.9218,98.6599,50,0,0,179.916
2.16,326.033,30.9234,99.6599,50,0,0,179.906
2.18,325.033,30.9251,100.66,50,0,0,179.895
2.2,324.033,30.927,101.66,50,0,0,179.882
2.22,323.033,30.9292,102.66,50,0,0,179.869
2.24,322.033,30.9316,103.66,50,0,0,179.853
2.26,321.033,30.9343,104.66,50,0,0,179.837
2.28,320.033,30.9373,105.66,50,0,0,179.819
2.3,319.033,30.9406,106.66,50,0,0,179.801
2.32,318.033,30.9443,107.66,50,0,0,179.781
2.34,317.033,30.9483,108.66,50,0,0,179.76
2.36,316.033,30.9526,109.66,50,0,0,179.739
2.38,315.033,30.9574,110.66,50,0,0,179.716
2.4,314.033,30.9625,111.66,50,0,0,179.693
2.42,313.033,30.9681,112.66,50,0,0,179.669
2.44,312.033,30.9741,113.66,50,0,0,179.645
2.46,311.033,30.9805,114.66,50,0,0,179.62
2.48,310.033,30.9873,115.66,50,0,0,179.595
2.5,309.033,30.9946,116.66,50,0,0,179.571
2.52,308.034,31.0023,117.66,50,0,0,179.546
2.54,307.034,31.0105,118.66,50,0,0,179.521
2.56,306.034,31.019,119.66,50,0,0,179.496
2.58,305.034,31.028,120.66,50,0,0,179.473
2.6,304.034,31.0375,121.66,50,0,0,179.45
2.62,303.034,31.0473,122.66,50,0,0,179.427
2.64,302.034,31.0575,123.66,50,0,0,179.406
2.66,301.034,31.068,124.66,50,0,0,179.386
2.68,300.034,31.0789,125.66,50,0,0,179.367
2.7,299.034,31.0901,126.66,50,0,0,179.349
2.72,298.034,31.1016,127.66,50,0,0,179.333
2.74,297.034,31.1134,128.66,50,0,0,179.319
2.76,296.034,31.1254,129.66,50,0,0,179.306
2.78,295.034,31.1377,130.66,50,0,0,179.295
2.8,294.034,31.1501,131.66,50,0,0,179.286
2.82,293.034,31.1626,132.66,50,-57.738,0,179.279
2.84,292.046,31.1751,133.648,48.8452,-128.007,0,179.273
2.86,291.096,31.1872,134.598,46.2931,-150,0,179.27
2.88,290.202,31.1986,135.492,43.2931,-150,0,179.268
2.9,289.367,31.2093,136.328,40.2931,-150,0,179.268
2.92,288.586,31.2193,137.108,37.2931,-150,0,179.269
2.94,287.873,31.2284,137.821,34.2931,-150,0,179.27
2.96,287.228,31.2366,138.467,31.2931,-150,0,179.273
2.98,286.621,31.2443,139.074,28.2931,-150,0,179.275
3,286.104,31.2508,139.59,25.2931,-150,0,179.279
3.02,285.617,31.257,140.078,22.2931,-138.251,0,179.282
3.04,285.237,31.2617,140.457,19.2931,-81.3816,0,179.284
3.06,284.858,31.2664,140.837,16.2931,-24.5123,0,179.287
3.08,284.524,31.2706,141.171,15,0,0,179.29
3.1,284.224,31.2743,141.471,15,0,0,179.292
3.12,283.924,31.278,141.771,15,0,0,179.295
3.14,283.624,31.2817,142.071,15,0,0,179.298
3.16,283.324,31.2854,142.371,15,0,0,179.301
3.18,283.024,31.289,142.671,15,0,0,179.304
3.2,282.724,31.2927,142.971,15,0,0,179.307
3.22,282.424,31.2963,143.271,15,0,0,179.31
3.24,282.124,31.2999,143.571,15,0,0,179.314
3.26,281.824,31.3035,143.871,15,0,0,179.317
3.28,281.524,31.307,144.171,15,0,0,179.321
3.3,281.224,31.3106,144.471,15,0,0,179.325
3.32,280.925,31.3141,144.771,15,0,0,179.328
3.34,280.625,31.3176,145.071,15,0,0,179.332
3.36,280.325,31.3211,145.371,15,0,0,179.336
3.38,280.025,31.3246,145.671,15,0,0,179.341
3.4,279.725,31.328,145.971,15,0,0,179.345
3.42,279.425,31.3314,146.271,15,0,0,179.349
3.44,279.125,31.3348,146.571,15,0,0,179.353
3.46,278.825,31.3382,146.871,15,0,0,179.358
3.48,278.525,31.3416,147.171,15,0,0,179.362
3.5,278.225,31.3449,147.471,15,0,0,179.367
3.52,277.925,31.3482,147.771,15,0,0,179.372
3.54,277.625,31.3515,148.071,15,0,0,179.376
3.56,277.325,31.3547,148.371,15,0,0,179.381
3.58,277.025,31.358,148.671,15,0,0,179.386
3.6,276.725,31.3612,148.971,15,0,0,179.391
3.62,276.425,31.3643,149.271,15,0,0,179.396
3.64,276.125,31.3675,149.571,15,0,0,179.401
3.66,275.825,31.3706,149.871,15,0,0,179.406
3.68,275.525,31.3737,150.171,15,0,0,179.411
3.7,275.225,31.3768,150.471,15,0,0,179.417
3.72,274.925,31.3798,150.771,15,0,0,179.422
3.74,274.625,31.3828,151.071,15,0,0,179.427
3.76,274.325,31.3858,151.371,15,0,0,179.433
3.78,274.025,31.3888,151.671,15,0,0,179.438
3.8,273.725,31.3917,151.971,15,0,0,179.443
3.82,273.425,31.3946,152.271,15,0,0,179.449
3.84,273.125,31.3975,152.571,15,0,0,179.454
3.86,272.825,31.4003,152.871,15,0,0,179.46
3.88,272.525,31.4031,153.171,15,0,0,179.465
3.9,272.225,31.4059,153.471,15,0,0,179.471
3.92,271.925,31.4087,153.771,15,0,0,179.477
3.94,271.625,31.4114,154.071,15,0,0,179.482
3.96,271.325,31.4141,154.371,15,0,0,179.488
3.98,271.025,31.4168,154.671,15,0,0,179.494
4,270.725,31.4194,154.971,15,0,0,179.499
4.02,270.425,31.422,155.271,15,0,0,179.505
4.04,270.125,31.4246,155.571,15,0,0,179.511
4.06,269.825,31.4271,155.871,15,0,0,179.516
4.08,269.525,31.4297,156.171,15,0,0,179.522
4.1,269.225,31.4321,156.471,15,0,0,179.528
4.12,268.925,31.4346,156.771,15,0,0,179.534
4.14,268.625,31.437,157.071,15,0,0,179.539
4.16,268.325,31.4394,157.371,15,0,0,179.545
4.18,268.025,31.4418,157.671,15,0,0,179.551
4.2,267.725,31.4441,157.971,15,0,0,179.557
4.22,267.425,31.4464,158.271,15,0,0,179.563
4.24,267.125,31.4487,158.571,15,0,0,179.568
4.26,266.825,31.4509,158.871,15,0,0,179.574
4.28,266.525,31.4532,159.171,15,0,0,179.58
4.3,266.225,31.4553,159.471,15,0,0,179.586
4.32,265.925,31.4575,159.771,15,0,0,179.591
4.34,265.625,31.4596,160.071,15,0,0,179.597
4.36,265.325,31.4617,160.371,15,0,0,179.603
4.38,265.025,31.4638,160.671,15,0,0,179.609
4.4,264.725,31.4658,160.971,15,0,0,179.614
4.42,264.425,31.4678,161.271,15,0,0,179.62
4.44,264.125,31.4698,161.571,15,0,0,179.626
4.46,263.825,31.4717,161.871,15,0,0,179.631
4.48,263.525,31.4737,162.171,15,0,0,179.637
4.5,263.225,31.4755,162.471,15,0,0,179.643
4.52,262.925,31.4774,162.771,15,0,0,179.648
4.54,262.625,31.4792,163.071,15,0,0,179.654
4.56,262.325,31.481,163.371,15,0,0,179.659
4.58,262.025,31.4828,163.671,15,0,0,179.665
4.6,261.725,31.4845,163.971,15,0,0,179.67
4.62,261.425,31.4862,164.271,15,0,0,179.676
4.64,261.125,31.4879,164.571,15,0,0,179.681
4.66,260.825,31.4896,164.871,15,0,0,179.687
4.68,260.525,31.4912,165.171,15,0,0,179.692
4.7,260.225,31.4928,165.471,15,0,0,179.698
4.72,259.925,31.4944,165.771,15,0,0,179.703
4.74,259.625,31.4959,166.071,15,0,0,179.708
4.76,259.325,31.4974,166.371,15,0,0,179.714
4.78,259.025,31.4989,166.671,15,0,0,179.719
4.8,258.725,31.5004,166.971,15,0,0,179.724
4.82,258.425,31.5018,167.271,15,0,0,179.729
4.84,258.125,31.5032,167.571,15,0,0,179.735
4.86,257.825,31.5046,167.871,15,0,0,179.74
4.88,257.525,31.5059,168.171,15,0,0,179.745
4.9,257.225,31.5072,168.471,15,0,0,179.75
4.92,256.925,31.5085,168.771,15,0,0,179.755
4.94,256.625,31.5098,169.071,15,0,0,179.76
4.96,256.325,31.5111,169.371,15,0,0,179.765
4.98,256.025,31.5123,169.671,15,0,0,179.77
5,255.725,31.5135,169.971,15,0,0,179.775
5.02,255.425,31.5146,170.271,15,0,0,179.78
5.04,255.125,31.5158,170.571,15,0,0,179.784
5.06,254.825,31.5169,170.871,15,0,0,179.789
5.08,254.525,31.518,171.171,15,0,0,179.794
5.1,254.225,31.519,171.471,15,0,0,179.799
5.12,253.925,31.5201,171.771,15,0,0,179.803
5.14,253.625,31.5211,172.071,15,0,0,179.808
5.16,253.325,31.5221,172.371,15,0,0,179.812
5.18,253.025,31.5231,172.671,15,0,0,179.817
5.2,252.725,31.524,172.971,15,0,0,179.821
5.22,252.425,31.5249,173.271,15,0,0,179.826
5.24,252.125,31.5258,173.571,15,0,0,179.83
5.26,251.825,31.5267,173.871,15,0,0,179.835
5.28,251.525,31.5276,174.171,15,0,0,179.839
5.3,251.225,31.5284,174.471,15,0,0,179.843
5.32,250.925,31.5292,174.771,15,0,0,179.847
5.34,250.625,31.53,175.071,15,0,0,179.851
5.36,250.325,31.5308,175.371,15,0,0,179.856
5.38,250.025,31.5315,175.671,15,0,0,179.86
5.4,249.725,31.5322,175.971,15,0,0,179.864
5.42,249.425,31.5329,176.271,15,0,0,179.868
5.44,249.125,31.5336,176.571,15,0,0,179.872
5.46,248.825,31.5343,176.871,15,0,0,179.875
5.48,248.525,31.5349,177.171,15,0,0,179.879
5.5,248.225,31.5356,177.471,15,0,0,179.883
5.52,247.925,31.5362,177.771,15,0,0,179.887
5.54,247.625,31.5367,178.071,15,0,0,179.89
5.56,247.325,31.5373,178.371,15,0,0,179.894
5.58,247.025,31.5378,178.671,15,0,0,179.898
5.6,246.725,31.5384,178.971,15,0,0,179.901
5.62,246.425,31.5389,179.271,15,0,0,179.904
5.64,246.125,31.5394,179.571,15,0,0,179.908
5.66,245.825,31.5398,179.871,15,0,0,179.911
5.68,245.525,31.5403,180.171,15,0,0,179.915
5.7,245.225,31.5407,180.471,15,0,0,179.918
5.72,244.925,31.5412,180.771,15,0,0,179.921
5.74,244.625,31.5416,181.071,15,0,0,179.924
5.76,244.325,31.5419,181.371,15,0,0,179.927
5.78,244.025,31.5423,181.671,15,0,0,179.93
5.8,243.725,31.5427,181.971,15,0,0,179.933
5.82,243.425,31.543,182.271,15,0,0,179.936
5.84,243.125,31.5433,182.571,15,0,0,179.939
5.86,242.825,31.5437,182.871,15,0,0,179.942
5.88,242.525,31.544,183.171,15,0,0,179.945
5.9,242.225,31.5442,183.471,15,0,0,179.947
5.92,241.925,31.5445,183.771,15,0,0,179.95
5.94,241.625,31.5448,184.071,15,0,0,179.952
5.96,241.325,31.545,184.371,15,0,0,179.955
5.98,241.025,31.5452,184.671,15,0,0,179.957
6,240.725,31.5454,184.971,15,0,0,179.96
6.02,240.425,31.5456,185.271,15,0,0,179.962
6.04,240.125,31.5458,185.571,15,0,0,179.964
6.06,239.825,31.546,185.871,15,0,0,179.967
6.08,239.525,31.5462,186.171,15,0,0,179.969
6.1,239.225,31.5463,186.471,15,0,0,179.971
6.12,238.925,31.5465,186.771,15,0,0,179.973
6.14,238.625,31.5466,187.071,15,0,0,179.975
6.16,238.325,31.5468,187.371,15,0,0,179.977
6.18,238.025,31.5469,187.671,15,0,0,179.978
6.2,237.725,31.547,187.971,15,0,0,179.98
6.22,237.425,31.5471,188.271,15,0,0,179.982
6.24,237.125,31.5472,188.571,15,0,0,179.983
6.26,236.825,31.5473,188.871,15,0,0,179.985
6.28,236.525,31.5473,189.171,15,0,0,179.986
6.3,236.225,31.5474,189.471,15,0,0,179.988
6.32,235.925,31.5475,189.771,15,0,0,179.989
6.34,235.625,31.5475,190.071,15,0,0,179.99
6.36,235.325,31.5476,190.371,15,0,0,179.991
6.38,235.025,31.5476,190.671,15,0,0,179.993
6.4,234.725,31.5476,190.971,15,0,0,179.994
6.42,234.425,31.5477,191.271,15,0,0,179.995
6.44,234.125,31.5477,191.571,15,0,0,179.995
6.46,233.825,31.5477,191.871,15,0,0,179.996
6.48,233.525,31.5477,192.171,15,-19.2028,0,179.997
6.5,233.225,31.5477,192.471,15,-52.9528,0,179.998
6.52,232.925,31.5477,192.771,15,-86.7028,0,179.998
6.54,232.661,31.5478,193.035,14.4698,-112.5,0,179.999
6.56,232.511,31.5478,193.185,12.2198,-112.5,0,179.999
6.58,232.361,31.5478,193.335,9.96981,-112.5,0,179.999
6.6,232.211,31.5478,193.485,7.71981,-112.5,0,179.999
6.62,232.061,31.5478,193.635,5.46981,-112.5,0,179.999
6.64,231.911,31.5478,193.785,3.21981,-112.5,0,179.999
6.66,231.761,31.5478,193.935,0.969814,-112.5,0,180
