"time","x","y","position","velocity","acceleration","jerk","heading"
0,425.468,11.4319,0,0,0,0,180
0.02,425.294,11.4319,0.173524,8.67618,433.809,21690.4,179.998
0.04,425.121,11.4319,0.347047,8.67618,-1.5584e-09,-21690.4,179.996
0.06,424.947,11.4319,0.520571,8.67618,-3.25882e-09,-8.50209e-08,179.994
0.08,424.774,11.4319,0.694094,8.67618,-4.67528e-09,-7.08233e-08,179.992
0.1,424.599,11.432,0.868618,8.72618,2.50007,125.004,179.99
0.12,424.37,11.432,1.09793,11.4654,136.963,6723.17,179.985
0.14,423.949,11.4321,1.51933,21.0702,480.236,17163.6,179.972
0.16,423.526,11.4324,1.94173,21.1202,2.50024,-23886.8,179.959
0.18,422.995,11.4328,2.47254,26.5403,271.009,13425.4,179.933
0.2,422.443,11.4336,3.02487,27.6165,53.8101,-10859.9,179.905
0.22,421.785,11.4348,3.68292,32.9022,264.282,10523.6,179.859
0.24,421.085,11.4369,4.38332,35.0201,105.895,-7919.37,179.804
0.26,420.326,11.4399,5.14186,37.9273,145.361,1973.29,179.737
0.28,419.492,11.4443,5.97591,41.7025,188.759,2169.89,179.649
0.3,418.591,11.4506,6.87747,45.0779,168.769,-999.477,179.54
0.32,417.626,11.4593,7.84207,48.2298,157.595,-558.711,179.408
0.34,416.596,11.4713,8.87224,51.5085,163.935,316.987,179.251
0.36,415.499,11.4873,9.96957,54.8665,167.901,198.336,179.063
0.38,414.332,11.5085,11.1367,58.3544,174.393,324.574,178.838
0.4,413.096,11.5362,12.3725,61.7943,171.996,-119.857,178.576
0.42,411.783,11.5721,13.6864,65.6916,194.868,1143.62,178.269
0.44,410.4,11.6179,15.07,69.1823,174.531,-1016.87,177.914
0.46,408.948,11.6758,16.5231,72.6548,173.625,-45.2729,177.509
0.48,407.416,11.7483,18.0567,76.6787,201.199,1378.67,177.043
0.5,405.812,11.8383,19.6634,80.3375,182.94,-912.945,176.518
0.52,404.133,11.9487,21.3456,84.107,188.473,276.64,175.938
0.54,402.383,12.0827,23.101,87.7702,183.157,-265.773,175.301
0.56,400.562,12.2431,24.9288,91.3911,181.045,-105.599,174.627
0.58,398.682,12.4314,26.8184,94.4815,154.524,-1326.09,173.939
0.6,396.753,12.6481,28.76,97.0808,129.961,-1228.12,173.276
0.62,394.815,12.8871,30.712,97.5957,25.7481,-5210.65,172.694
0.64,392.913,13.1393,32.6309,95.9479,-82.3898,-5406.9,172.242
0.66,391.059,13.3976,34.5029,93.5998,-117.407,-1750.84,171.964
0.68,389.247,13.6563,36.3331,91.5094,-104.518,644.441,171.849
0.7,387.482,13.9088,38.116,89.143,-118.323,-690.245,171.915
0.72,385.761,14.1505,39.8544,86.9218,-111.057,363.265,172.152
0.74,384.07,14.3789,41.5601,85.2869,-81.7463,1465.56,172.509
0.76,382.405,14.5915,43.2391,83.9504,-66.8274,745.942,172.973
0.78,380.758,14.7871,44.8976,82.9223,-51.4039,771.174,173.512
0.8,379.122,14.9648,46.5434,82.2901,-31.6075,989.822,174.103
0.82,377.493,15.1243,48.1796,81.8103,-23.9906,380.847,174.727
0.84,375.868,15.2651,49.8115,81.5929,-10.8702,656.02,175.372
0.86,374.245,15.3872,51.4388,81.3666,-11.3136,-22.1711,176.028
0.88,372.621,15.4905,53.0661,81.3661,-0.0290432,564.228,176.69
0.9,370.998,15.575,54.6909,81.2406,-6.27394,-312.245,177.357
0.92,369.375,15.6404,56.3155,81.2266,-0.698748,278.76,178.029
0.94,367.754,15.6865,57.9369,81.0722,-7.72002,-351.063,178.71
0.96,366.037,15.7186,59.6545,85.8793,240.357,12403.9,179.026
0.98,364.269,15.7467,61.4228,88.4144,126.752,-5680.27,179.148
1,362.499,15.7712,63.1929,88.5056,4.56227,-6109.47,179.259
1.02,360.725,15.7925,64.9671,88.7106,10.2502,284.396,179.358
1.04,358.948,15.811,66.7436,88.8268,5.80632,-222.193,179.448
1.06,357.17,15.8269,68.5225,88.9433,5.82765,1.06656,179.529
1.08,355.389,15.8404,70.3034,89.047,5.18443,-32.1614,179.602
1.1,353.606,15.8517,72.0862,89.1379,4.54329,-32.0565,179.668
1.12,351.821,15.8611,73.871,89.242,5.20841,33.2558,179.726
1.14,350.035,15.8688,75.6577,89.3333,4.56107,-32.3673,179.777
1.16,348.246,15.8751,77.4462,89.4246,4.5668,0.286806,179.821
1.18,346.456,15.88,79.2363,89.5029,3.91679,-32.5006,179.859
1.2,344.665,15.8838,81.0276,89.5682,3.26516,-32.5815,179.892
1.22,342.871,15.8868,82.8211,89.6729,5.23221,98.3525,179.917
1.24,341.077,15.8891,84.6158,89.7383,3.26992,-98.1147,179.937
1.26,339.28,15.8908,86.4119,89.8037,3.27083,0.0454874,179.952
1.28,337.483,15.8921,88.2098,89.8953,4.58066,65.4915,179.96
1.3,335.684,15.8933,90.0088,89.9477,2.61782,-98.1418,179.964
1.32,333.883,15.8945,91.8096,90.0393,4.58149,98.1835,179.961
1.34,332.081,15.8958,93.6117,90.1047,3.27267,-65.4412,179.953
1.36,330.277,15.8975,95.4153,90.1833,3.92782,32.7579,179.939
1.38,328.472,15.8997,97.2203,90.2488,3.27385,-32.6989,179.92
1.4,326.666,15.9025,99.0266,90.3143,3.27458,0.0364561,179.896
1.42,324.858,15.9062,100.834,90.3798,3.27655,0.0989585,179.867
1.44,323.049,15.911,102.643,90.4454,3.27833,0.0885385,179.833
1.46,321.239,15.9169,104.453,90.511,3.28133,0.149996,179.794
1.48,319.428,15.924,106.264,90.5505,1.97433,-65.3498,179.752
1.5,317.616,15.9325,108.076,90.6031,2.63199,32.8829,179.706
1.52,315.803,15.9426,109.889,90.6297,1.32944,-65.1273,179.658
1.54,313.99,15.9543,111.702,90.6695,1.98749,32.9027,179.607
1.56,312.177,15.9675,113.516,90.6831,0.680227,-65.3634,179.555
1.58,310.368,15.9823,115.324,90.4206,-13.1232,-690.171,179.504
1.6,308.599,15.9984,117.094,88.4581,-98.1227,-4249.98,179.454
1.62,306.894,16.0154,118.799,85.2564,-160.089,-3098.33,179.408
1.64,305.248,16.033,120.445,82.3045,-147.595,624.731,179.366
1.66,303.663,16.051,122.03,79.2394,-153.252,-282.88,179.329
1.68,302.141,16.0693,123.552,76.1243,-155.753,-125.049,179.297
1.7,300.678,16.0876,125.015,73.1591,-148.262,374.585,179.27
1.72,299.278,16.1058,126.415,69.9808,-158.918,-532.8,179.249
1.74,297.941,16.1235,127.752,66.8784,-155.118,189.981,179.232
1.76,296.66,16.1408,129.033,64.0391,-141.968,657.514,179.218
1.78,295.441,16.1576,130.252,60.9605,-153.927,-597.949,179.21
1.8,294.288,16.1735,131.406,57.6709,-164.479,-527.619,179.205
1.82,293.194,16.1888,132.499,54.6815,-149.474,750.274,179.203
1.84,292.16,16.2032,133.534,51.705,-148.823,32.5519,179.203
1.86,291.187,16.2167,134.507,48.6786,-151.322,-124.988,179.205
1.88,290.272,16.2293,135.422,45.7389,-146.984,216.904,179.21
1.9,289.415,16.2412,136.279,42.8387,-145.01,98.6939,179.215
1.92,288.624,16.252,137.07,39.5751,-163.177,-908.33,179.221
1.94,287.9,16.2618,137.794,36.2117,-168.173,-249.803,179.228
1.96,287.227,16.2708,138.467,33.6245,-129.357,1940.79,179.234
1.98,286.606,16.2791,139.088,31.0611,-128.17,59.3713,179.241
2,286.073,16.2861,139.621,26.6607,-220.024,-4592.69,179.248
2.02,285.559,16.2929,140.136,25.7106,-47.5025,8626.06,179.255
2.04,285.165,16.298,140.529,19.6862,-301.221,-12685.9,179.26
2.06,284.788,16.3028,140.907,18.8861,-40.0031,13060.9,179.265
2.08,284.43,16.3074,141.265,17.886,-50.0055,-500.12,179.27
2.1,284.131,16.3112,141.563,14.9358,-147.514,-4875.4,179.275
2.12,283.833,16.315,141.862,14.9358,3.66347e-09,7375.68,179.28
2.14,283.534,16.3187,142.161,14.9357,-0.0031247,-0.156235,179.285
2.16,283.235,16.3225,142.46,14.9358,0.00312478,0.312474,179.29
2.18,282.936,16.3261,142.759,14.9488,0.651374,32.4124,179.294
2.2,282.637,16.3298,143.057,14.9357,-0.654498,-65.2936,179.299
2.22,282.339,16.3334,143.356,14.9356,-0.00304139,32.5729,179.304
2.24,282.04,16.3371,143.654,14.9226,-0.651457,-32.4208,179.31
2.26,281.742,16.3407,143.953,14.9356,0.651457,65.1457,179.315
2.28,281.443,16.3442,144.252,14.9225,-0.657456,-65.4457,179.321
2.3,281.145,16.3477,144.55,14.9356,0.657457,65.7457,179.326
2.32,280.846,16.3512,144.849,14.9225,-0.657457,-65.7457,179.332
2.34,280.547,16.3547,145.148,14.9356,0.654498,65.5978,179.337
2.36,280.249,16.3581,145.446,14.9224,-0.657373,-65.5936,179.343
2.38,279.951,16.3616,145.744,14.9225,0.00287487,33.0124,179.349
2.4,279.652,16.365,146.043,14.9224,-0.00287493,-0.28749,179.355
2.42,279.353,16.3682,146.342,14.9355,0.651707,32.7291,179.36
2.44,279.055,16.3716,146.64,14.9224,-0.651707,-65.1707,179.366
2.46,278.757,16.3749,146.938,14.9224,-0.00279158,32.4458,179.372
2.48,278.458,16.3781,147.237,14.9223,-0.00270806,0.00417623,179.378
2.5,278.16,16.3814,147.535,14.9093,-0.65179,-32.4541,179.385
2.52,277.862,16.3845,147.834,14.9223,0.65179,65.179,179.391
2.54,277.563,16.3877,148.132,14.9223,1.53482e-08,-32.5895,179.397
2.56,277.265,16.3908,148.43,14.9223,-0.00262483,-0.131242,179.403
2.58,276.967,16.3939,148.729,14.9092,-0.654499,-32.5937,179.41
2.6,276.668,16.397,149.027,14.9223,0.654498,65.4498,179.416
2.62,276.37,16.4,149.326,14.9222,-0.00254151,-32.852,179.422
2.64,276.072,16.4029,149.624,14.9091,-0.654499,-32.5978,179.429
2.66,275.773,16.4059,149.922,14.9222,0.654498,65.4498,179.435
2.68,275.475,16.4089,150.221,14.9222,5.72227e-08,-32.7249,179.441
2.7,275.176,16.4118,150.519,14.9091,-0.656957,-32.8478,179.448
2.72,274.878,16.4146,150.817,14.9221,0.652124,65.454,179.454
2.74,274.58,16.4175,151.115,14.9091,-0.652124,-65.2124,179.461
2.76,274.281,16.4202,151.414,14.9221,0.652123,65.2124,179.467
2.78,273.983,16.4229,151.712,14.909,-0.65679,-65.4457,179.474
2.8,273.685,16.4257,152.01,14.909,0.00229154,32.9541,179.481
2.82,273.387,16.4284,152.309,14.9221,0.652207,32.4958,179.487
2.84,273.089,16.4311,152.607,14.909,-0.654498,-65.3353,179.494
2.86,272.79,16.4337,152.905,14.922,0.65229,65.3394,179.5
2.88,272.492,16.4363,153.203,14.9089,-0.654498,-65.3394,179.507
2.9,272.194,16.4388,153.502,14.922,0.654498,65.4498,179.513
2.92,271.895,16.4413,153.8,14.9089,-0.656623,-65.5561,179.52
2.94,271.597,16.4438,154.098,14.9089,-2.50171e-08,32.8312,179.527
2.96,271.299,16.4462,154.397,14.9219,0.652457,32.6228,179.533
2.98,271.001,16.4487,154.695,14.9089,-0.652457,-65.2457,179.54
3,270.702,16.4511,154.993,14.9219,0.652457,65.2457,179.546
3.02,270.404,16.4534,155.291,14.9088,-0.656457,-65.4457,179.553
3.04,270.106,16.4556,155.59,14.9219,0.654498,65.5478,179.559
3.06,269.807,16.4579,155.888,14.9088,-0.654498,-65.4498,179.566
3.08,269.509,16.4602,156.187,14.9219,0.654499,65.4498,179.572
3.1,269.211,16.4624,156.485,14.9088,-0.656373,-65.5436,179.579
3.12,268.912,16.4646,156.783,14.9219,0.654498,65.5436,179.585
3.14,268.614,16.4668,157.081,14.9088,-0.654498,-65.4498,179.592
3.16,268.316,16.4689,157.38,14.9218,0.652707,65.3603,179.598
3.18,268.018,16.471,157.678,14.9087,-0.654498,-65.3603,179.605
3.2,267.719,16.4729,157.976,14.9218,0.65279,65.3644,179.611
3.22,267.421,16.4749,158.275,14.9087,-0.654499,-65.3644,179.618
3.24,267.123,16.4769,158.573,14.9218,0.654498,65.4498,179.624
3.26,266.824,16.4789,158.871,14.9218,4.29552e-08,-32.7249,179.63
3.28,266.526,16.4808,159.17,14.9087,-0.656123,-32.8062,179.637
3.3,266.228,16.4827,159.468,14.9218,0.654498,65.5311,179.643
3.32,265.929,16.4845,159.766,14.9217,-0.00154158,-32.802,179.649
3.34,265.631,16.4863,160.065,14.9217,-5.20756e-08,0.0770764,179.655
3.36,265.334,16.4881,160.362,14.8586,-3.15445,-157.723,179.662
3.38,265.035,16.4899,160.66,14.9217,3.15445,315.445,179.668
3.4,264.737,16.4915,160.959,14.9217,-0.00145834,-157.796,179.674
3.42,264.438,16.4932,161.257,14.9217,-9.58158e-09,0.0729167,179.68
3.44,264.14,16.4949,161.556,14.9217,3.35624e-08,2.1572e-06,179.686
3.46,263.841,16.4965,161.854,14.9217,-0.001375,-0.0687515,179.692
3.48,263.543,16.4981,162.153,14.9217,-1.73761e-08,0.068749,179.698
3.5,263.245,16.4997,162.451,14.9217,2.5768e-08,2.15721e-06,179.704
3.52,262.946,16.5012,162.75,14.9216,-0.00129165,-0.0645838,179.71
3.54,262.648,16.5027,163.048,14.9216,-2.55974e-08,0.0645812,179.716
3.56,262.349,16.5042,163.347,14.9347,0.654498,32.7249,179.721
3.58,262.051,16.5056,163.645,14.9216,-0.655707,-65.5103,179.727
3.6,261.752,16.507,163.943,14.9216,-4.05367e-08,32.7853,179.733
3.62,261.454,16.5084,164.242,14.9216,2.74945e-09,2.16431e-06,179.739
3.64,261.155,16.5097,164.541,14.9347,0.654499,32.7249,179.744
3.66,260.857,16.511,164.839,14.9216,-0.655623,-65.5061,179.75
3.68,260.558,16.5123,165.137,14.9216,-1.21905e-08,32.7812,179.756
3.7,260.259,16.5135,165.436,14.9347,0.653457,32.6728,179.761
3.72,259.961,16.5148,165.735,14.9347,0.00104165,-32.6208,179.766
3.74,259.662,16.516,166.033,14.9216,-0.65554,-32.8291,179.772
3.76,259.364,16.5172,166.332,14.9347,0.654498,65.5019,179.777
3.78,259.065,16.5183,166.631,14.9347,-0.000958279,-32.7728,179.782
3.8,258.766,16.5194,166.929,14.9216,-0.654499,-32.677,179.788
3.82,258.468,16.5205,167.228,14.9347,0.654498,65.4498,179.793
3.84,258.169,16.5216,167.527,14.9347,1.53326e-08,-32.7249,179.798
3.86,257.87,16.5227,167.825,14.9347,4.04532e-08,1.25603e-06,179.803
3.88,257.572,16.5237,168.124,14.9346,-0.000875044,-0.0437542,179.808
3.9,257.273,16.5247,168.423,14.9346,-5.19904e-09,0.043752,179.813
3.92,256.974,16.5256,168.721,14.9346,-0.000791584,-0.0395789,179.818
3.94,256.676,16.5266,169.02,14.9346,0.000791649,0.0791617,179.823
3.96,256.377,16.5275,169.319,14.9346,-0.000791726,-0.0791687,179.828
3.98,256.078,16.5284,169.617,14.9346,-3.26494e-10,0.0395863,179.833
4,255.78,16.5292,169.916,14.9346,-0.000708265,-0.0354132,179.838
4.02,255.481,16.5301,170.215,14.9477,0.655207,32.7958,179.842
4.04,255.182,16.5309,170.514,14.9346,-0.655207,-65.5207,179.847
4.06,254.883,16.5317,170.813,14.9477,0.654498,65.4853,179.851
4.08,254.584,16.5323,171.111,14.9346,-0.655123,-65.4811,179.856
4.1,254.285,16.5331,171.41,14.9477,0.655123,65.5123,179.86
4.12,253.987,16.5338,171.709,14.9346,-0.655124,-65.5123,179.865
4.14,253.688,16.5345,172.008,14.9477,0.654498,65.4811,179.869
4.16,253.389,16.5352,172.307,14.9477,8.66098e-09,-32.7249,179.873
4.18,253.09,16.5358,172.606,14.9346,-0.65504,-32.752,179.878
4.2,252.791,16.5364,172.905,14.9477,0.654498,65.4769,179.882
4.22,252.492,16.537,173.203,14.9477,-1.09103e-08,-32.7249,179.886
4.24,252.193,16.5376,173.502,14.9477,1.8578e-09,6.38405e-07,179.89
4.26,251.894,16.5382,173.801,14.9477,1.46877e-08,6.41496e-07,179.894
4.28,251.595,16.5387,174.1,14.9477,-0.000458321,-0.0229168,179.898
4.3,251.296,16.5393,174.399,14.9477,0.000458389,0.0458355,179.902
4.32,250.997,16.5398,174.699,14.9608,0.65404,32.6791,179.905
4.34,250.698,16.5403,174.997,14.9477,-0.654498,-65.4269,179.909
4.36,250.399,16.5407,175.296,14.9477,-0.000374939,32.7062,179.913
4.38,250.1,16.5412,175.596,14.9608,0.654873,32.7624,179.916
4.4,249.801,16.5416,175.895,14.9477,-0.654873,-65.4873,179.92
4.42,249.502,16.542,176.194,14.9607,0.654498,65.4686,179.923
4.44,249.203,16.5424,176.493,14.9477,-0.654498,-65.4498,179.927
4.46,248.904,16.5428,176.792,14.9607,0.654498,65.4498,179.93
4.48,248.604,16.5431,177.091,14.9607,-0.000291636,-32.7395,179.933
4.5,248.305,16.5435,177.39,14.9607,0.000291664,0.029165,179.936
4.52,248.006,16.5438,177.689,14.9476,-0.65479,-32.7541,179.94
4.54,247.707,16.5441,177.989,14.9607,0.654498,65.4644,179.943
4.56,247.408,16.5444,178.288,14.9607,5.9579e-10,-32.7249,179.946
4.58,247.109,16.5447,178.587,14.9607,5.87264e-09,2.63842e-07,179.949
4.6,246.809,16.5449,178.886,14.9738,0.65429,32.7145,179.951
4.62,246.51,16.5452,179.186,14.9607,-0.65429,-65.429,179.954
4.64,246.211,16.5454,179.485,14.9607,-0.00020835,32.7041,179.957
4.66,245.912,16.5456,179.784,14.9607,-8.68186e-09,0.0104171,179.96
4.68,245.612,16.5458,180.084,14.9738,0.654498,32.7249,179.962
4.7,245.313,16.546,180.383,14.9738,2.30571e-10,-32.7249,179.964
4.72,245.013,16.5462,180.682,14.9607,-0.654498,-32.7249,179.967
4.74,244.714,16.5464,180.982,14.9738,0.654498,65.4498,179.969
4.76,244.414,16.5465,181.281,14.9738,-0.000124984,-32.7312,179.971
4.78,244.115,16.5467,181.581,14.9738,0.000124997,0.012499,179.973
4.8,243.816,16.5468,181.88,14.9607,-0.654623,-32.7374,179.976
4.82,243.516,16.5469,182.179,14.9738,0.654498,65.4561,179.978
4.84,243.217,16.547,182.479,14.9869,0.654498,3.47142e-07,179.979
4.86,242.917,16.5471,182.779,14.9738,-0.654498,-65.4498,179.981
4.88,242.618,16.5472,183.078,14.9738,-1.23457e-11,32.7249,179.983
4.9,242.318,16.5473,183.378,14.9738,1.70006e-09,8.56204e-08,179.985
4.92,242.018,16.5474,183.677,14.9869,0.654498,32.7249,179.986
4.94,241.719,16.5474,183.977,14.9738,-0.65454,-65.4519,179.988
4.96,241.419,16.5475,184.277,14.9869,0.65454,65.454,179.989
4.98,241.12,16.5475,184.576,14.9738,-0.65454,-65.454,179.991
5,240.82,16.5476,184.876,14.9869,0.65454,65.454,179.992
5.02,240.52,16.5476,185.175,14.9869,-4.16722e-05,-32.7291,179.993
5.04,240.22,16.5477,185.475,14.9869,4.16768e-05,0.00416745,179.994
5.06,239.921,16.5477,185.775,14.9869,-4.16795e-05,-0.00416781,179.995
5.08,239.621,16.5477,186.075,14.9869,-1.02904e-09,0.00208392,179.996
5.1,239.321,16.5477,186.374,14.9869,-7.49001e-10,1.40021e-08,179.997
5.12,239.021,16.5477,186.674,14.9869,-6.02185e-10,7.34079e-09,179.998
5.14,238.721,16.5477,186.974,15,0.654498,32.7249,179.998
5.16,238.558,16.5478,187.137,8.15,-342.5,-17157.7,179.998
5.18,238.409,16.5478,187.287,7.48691,-33.1546,15467.3,179.999
5.2,238.259,16.5478,187.437,7.5,0.654498,1690.45,179.999
5.22,238.109,16.5478,187.587,7.5,-5.44009e-11,-32.7249,179.999
5.24,237.959,16.5478,187.737,7.5,5.44009e-11,5.44009e-09,179.999
5.26,237.809,16.5478,187.887,7.5,1.66533e-11,-1.88738e-09,179.999
