"time","x","y","position","velocity","acceleration","jerk","heading"
0,386.29,298.797,0,0,0,0,16.3
0.02,386.457,298.846,0.174442,8.72211,436.106,21805.3,16.2948
0.04,386.625,298.895,0.348604,8.70809,-0.70111,-21840.3,16.2896
0.06,386.793,298.944,0.524006,8.77008,3.09942,190.026,16.2844
0.08,386.96,298.993,0.698194,8.7094,-3.03397,-306.669,16.2791
0.1,387.128,299.042,0.872636,8.72211,0.635655,183.481,16.2739
0.12,387.35,299.107,1.1039,11.5633,142.061,7071.29,16.2657
0.14,387.755,299.225,1.52644,21.1269,478.176,16805.7,16.2473
0.16,388.162,299.343,1.94991,21.1735,2.33472,-23792.1,16.229
0.18,388.676,299.493,2.48539,26.774,280.024,13884.5,16.1853
0.2,389.211,299.648,3.04248,27.8543,54.0119,-11300.6,16.1367
0.22,389.806,299.82,3.66148,30.9504,154.804,5039.63,16.0667
0.24,390.401,299.992,4.28085,30.9683,0.896921,-7695.38,15.9906
0.26,391,300.163,4.90412,31.1636,9.76346,443.327,15.9022
0.28,391.604,300.334,5.53152,31.3698,10.3101,27.3343,15.797
0.3,392.21,300.506,6.16178,31.5129,7.15676,-157.669,15.6835
0.32,392.819,300.675,6.79409,31.6155,5.13011,-101.333,15.5601
0.34,393.431,300.846,7.42943,31.7674,7.59215,123.102,15.4251
0.36,394.049,301.016,8.07029,32.0431,13.785,309.644,15.267
0.38,394.67,301.184,8.71332,32.1513,5.41402,-418.551,15.1023
0.4,395.292,301.351,9.35794,32.2311,3.98701,-71.3504,14.9342
0.42,395.922,301.517,10.009,32.5537,16.1336,607.328,14.7385
0.44,396.553,301.683,10.6617,32.6327,3.94578,-609.39,14.5358
0.46,397.189,301.847,11.3183,32.8339,10.0619,305.807,14.3195
0.48,397.829,302.009,11.9784,33.001,8.35506,-85.3436,14.0913
0.5,398.47,302.168,12.6395,33.0552,2.7104,-282.233,13.8571
0.52,399.122,302.328,13.31,33.5287,23.6762,1048.29,13.5886
0.54,399.774,302.484,13.9809,33.5432,0.725436,-1147.54,13.3154
0.56,400.431,302.638,14.6557,33.7393,9.803,453.878,13.0329
0.58,401.094,302.789,15.3351,33.9683,11.4478,82.2404,12.7266
0.6,401.761,302.939,16.0188,34.1871,10.9428,-25.2511,12.4085
0.62,402.435,303.085,16.7082,34.4701,14.1471,160.215,12.0655
0.64,403.111,303.228,17.3999,34.5831,5.6531,-424.7,11.7152
0.66,403.793,303.367,18.0955,34.7799,9.83933,209.312,11.3505
0.68,404.483,303.503,18.7993,35.1928,20.6437,540.217,10.955
0.7,405.178,303.635,19.5064,35.355,8.11355,-626.506,10.5442
0.72,405.881,303.763,20.2205,35.706,17.5468,471.66,10.1113
0.74,406.586,303.886,20.937,35.8227,5.83402,-585.637,9.66613
0.76,407.3,304.005,21.6601,36.1573,16.731,544.85,9.19659
0.78,408.021,304.119,22.3903,36.5077,17.5219,39.5419,8.69661
0.8,408.748,304.227,23.1258,36.7754,13.3864,-206.772,8.18141
0.82,409.484,304.329,23.868,37.109,16.677,164.531,7.63692
0.84,410.224,304.426,24.6149,37.344,11.7529,-246.209,7.07622
0.86,410.974,304.515,25.3704,37.775,21.547,489.708,6.48307
0.88,411.734,304.597,26.1342,38.1926,20.8788,-33.4103,5.85501
0.9,412.499,304.671,26.903,38.4402,12.3819,-424.845,5.2095
0.92,413.276,304.738,27.6825,38.976,26.7895,720.38,4.52476
0.94,414.058,304.796,28.4671,39.2288,12.6416,-707.394,3.82207
0.96,414.849,304.843,29.2596,39.6223,19.6746,351.646,3.08347
0.98,415.654,304.881,30.0658,40.3102,34.3921,735.876,2.29832
1,416.465,304.908,30.8767,40.5487,11.9253,-1123.34,1.48991
1.02,417.29,304.924,31.702,41.2638,35.7592,1191.69,0.629865
1.04,418.12,304.927,32.532,41.501,11.8566,-1195.13,-0.248741
1.06,418.96,304.917,33.3718,41.9888,24.3899,626.662,-1.16447
1.08,419.814,304.893,34.2263,42.7237,36.7455,617.781,-2.13558
1.1,420.674,304.854,35.0874,43.0546,16.5473,-1009.91,-3.13439
1.12,421.553,304.798,35.9682,44.0419,49.3645,1640.86,-4.20635
1.14,422.437,304.724,36.8549,44.3325,14.5301,-1741.72,-5.30096
1.16,423.331,304.632,37.7534,44.9263,29.6884,757.913,-6.44085
1.18,424.235,304.521,38.6647,45.5665,32.01,116.083,-7.62833
1.2,425.142,304.391,39.5809,45.8084,12.0933,-995.838,-8.83961
1.22,426.068,304.236,40.5194,46.9254,55.8524,2187.96,-10.1318
1.24,426.998,304.059,41.4661,47.3353,20.4946,-1767.89,-11.4541
1.26,427.938,303.857,42.4274,48.0661,36.5397,802.256,-12.8366
1.28,428.885,303.629,43.4023,48.7442,33.9039,-131.789,-14.2665
1.3,429.832,303.376,44.3822,48.9952,12.5494,-1067.73,-15.72
1.32,430.79,303.093,45.3812,49.9479,47.636,1754.33,-17.2418
1.34,431.744,302.783,46.3843,50.1581,10.5116,-1856.22,-18.7846
1.36,432.701,302.443,47.3999,50.7772,30.9521,1022.03,-20.3695
1.38,433.656,302.073,48.4241,51.2133,21.8071,-457.251,-21.9915
1.4,434.605,301.674,49.4533,51.4594,12.3036,-475.174,-23.6321
1.42,435.554,301.242,50.496,52.135,33.7802,1073.83,-25.3193
1.44,436.491,300.782,51.54,52.1966,3.08348,-1534.83,-27.0178
1.46,437.419,300.29,52.5905,52.5251,16.4238,667.018,-28.7391
1.48,438.335,299.771,53.6434,52.645,5.99514,-521.435,-30.4688
1.5,439.236,299.223,54.6977,52.7159,3.54334,-122.59,-32.2026
1.52,440.118,298.648,55.75,52.6173,-4.92893,-423.614,-33.9339
1.54,440.982,298.047,56.8024,52.6176,0.0131726,247.105,-35.6596
1.56,441.824,297.423,57.851,52.4285,-9.45225,-473.271,-37.3738
1.58,442.644,296.778,58.8939,52.1468,-14.0877,-231.774,-39.0674
1.6,443.442,296.11,59.9344,52.0276,-5.96026,406.374,-40.7508
1.62,444.212,295.426,60.9645,51.5041,-26.1716,-1010.57,-42.3911
1.64,444.958,294.726,61.9885,51.1976,-15.3249,542.338,-44.0135
1.66,445.679,294.01,63.0041,50.7834,-20.7098,-269.245,-45.6
1.68,446.37,293.284,64.0064,50.1144,-33.4504,-637.032,-47.1347
1.7,447.037,292.546,65.0011,49.7341,-19.0161,721.714,-48.6435
1.72,447.673,291.805,65.9775,48.8216,-45.6266,-1330.52,-50.0817
1.74,448.286,291.053,66.9484,48.5445,-13.852,1588.73,-51.4959
1.76,448.873,290.296,67.9055,47.8527,-34.5927,-1037.04,-52.8618
1.78,449.435,289.537,68.8503,47.2388,-30.6939,194.94,-54.1795
1.8,449.975,288.769,69.789,46.9359,-15.1444,777.476,-55.473
1.82,450.487,288.005,70.7086,45.9825,-47.6696,-1626.26,-56.6954
1.84,450.98,287.238,71.6206,45.6004,-19.1072,1428.12,-57.8872
1.86,451.449,286.474,72.5172,44.8288,-38.5799,-973.635,-59.0177
1.88,451.896,285.712,73.4003,44.1561,-33.6355,247.223,-60.1001
1.9,452.326,284.948,74.2773,43.8501,-15.2964,916.951,-61.1583
1.92,452.734,284.19,75.1376,43.0128,-41.8681,-1328.58,-62.1542
1.94,453.128,283.43,75.9934,42.7919,-11.0428,1541.26,-63.1306
1.96,453.503,282.672,76.8391,42.2826,-25.4641,-721.064,-64.0683
1.98,453.86,281.922,77.6708,41.5851,-34.8784,-470.715,-64.9523
2,454.204,281.173,78.4948,41.2008,-19.2131,783.266,-65.8095
2.02,454.531,280.431,79.3048,40.5005,-35.014,-790.045,-66.6118
2.04,454.845,279.689,80.1115,40.3318,-8.43701,1328.85,-67.3993
2.06,455.146,278.95,80.909,39.8781,-22.6853,-712.412,-68.1568
2.08,455.435,278.216,81.6982,39.4601,-20.9,89.2626,-68.8767
2.1,455.713,277.483,82.4819,39.1824,-13.8857,350.715,-69.5779
2.12,455.977,276.761,83.2507,38.4431,-36.9662,-1154.03,-70.2248
2.14,456.232,276.038,84.0172,38.3221,-6.04923,1545.85,-70.8607
2.16,456.478,275.318,84.7781,38.048,-13.7018,-382.629,-71.4747
2.18,456.713,274.603,85.5309,37.6377,-20.5148,-340.652,-72.0586
2.2,456.94,273.889,86.2801,37.4584,-8.9681,577.337,-72.6274
2.22,457.156,273.184,87.0171,36.8511,-30.3642,-1069.81,-73.153
2.24,457.366,272.479,87.7525,36.7711,-4.00104,1318.16,-73.6707
2.26,457.568,271.776,88.4843,36.5887,-9.11716,-255.806,-74.1725
2.28,457.773,271.043,89.2456,38.0677,73.9501,4153.36,-74.6692
2.3,457.977,270.283,90.0324,39.3412,63.674,-513.804,-75.1674
2.32,458.197,269.439,90.9043,43.5942,212.648,7448.72,-75.6952
2.34,458.424,268.531,91.8407,46.818,161.191,-2572.87,-76.2443
2.36,458.654,267.565,92.834,49.667,142.449,-937.103,-76.795
2.38,458.89,266.538,93.887,52.6471,149.004,327.767,-77.3487
2.4,459.128,265.449,95.0024,55.7704,156.168,358.207,-77.9103
2.42,459.369,264.299,96.1768,58.7206,147.509,-432.98,-78.4625
2.44,459.609,263.089,97.4105,61.6865,148.293,39.2069,-79.0122
2.46,459.849,261.822,98.6998,64.4635,138.851,-472.117,-79.5476
2.48,460.087,260.497,100.046,67.3223,142.94,204.463,-80.0767
2.5,460.321,259.119,101.444,69.9013,128.953,-699.32,-80.5733
2.52,460.555,257.677,102.905,73.0259,156.226,1363.61,-81.0599
2.54,460.783,256.186,104.413,75.4295,120.18,-1802.31,-81.5206
2.56,461.007,254.637,105.978,78.2303,140.044,993.209,-81.9546
2.58,461.227,253.036,107.594,80.802,128.582,-573.095,-82.3635
2.6,461.443,251.383,109.261,83.3525,127.526,-52.7761,-82.7411
2.62,461.651,249.709,110.948,84.3339,49.072,-3922.72,-83.0829
2.64,461.848,248.043,112.626,83.9259,-20.4019,-3473.69,-83.3825
2.66,462.037,246.384,114.296,83.4692,-22.8345,-121.631,-83.6465
2.68,462.216,244.735,115.954,82.9249,-27.2145,-219.003,-83.8723
2.7,462.39,243.095,117.604,82.4794,-22.2776,246.848,-84.0623
2.72,462.558,241.461,119.246,82.096,-19.1676,155.5,-84.2208
2.74,462.72,239.837,120.878,81.6375,-22.9255,-187.893,-84.3462
2.76,462.879,238.219,122.504,81.2601,-18.868,202.874,-84.4439
2.78,463.034,236.609,124.122,80.9128,-17.3693,74.9354,-84.512
2.8,463.187,235.005,125.733,80.5511,-18.084,-35.738,-84.5532
2.82,463.34,233.408,127.337,80.2147,-16.8206,63.1712,-84.5687
2.84,463.49,231.819,128.933,79.8028,-20.5933,-188.636,-84.5569
2.86,463.641,230.235,130.524,79.5497,-12.6552,396.907,-84.5216
2.88,463.794,228.658,132.109,79.2228,-16.3426,-184.37,-84.4606
2.9,463.947,227.088,133.686,78.8637,-17.9549,-80.6141,-84.3756
2.92,464.103,225.524,135.258,78.5797,-14.2029,187.596,-84.2674
2.94,464.26,223.967,136.823,78.248,-16.5824,-118.973,-84.1331
2.96,464.422,222.416,138.382,77.983,-13.2528,166.479,-83.9766
2.98,464.587,220.873,139.934,77.5799,-20.1538,-345.049,-83.7953
3,464.757,219.335,141.481,77.3557,-11.2079,447.294,-83.5906
3.02,464.931,217.806,143.02,76.9806,-18.7586,-377.532,-83.3627
3.04,465.113,216.283,144.554,76.6904,-14.5077,212.543,-83.1091
3.06,465.299,214.767,146.082,76.3744,-15.8009,-64.6582,-82.8324
3.08,465.493,213.258,147.603,76.0406,-16.6919,-44.5531,-82.5297
3.1,465.694,211.757,149.117,75.7211,-15.9748,35.8583,-82.2019
3.12,465.902,210.264,150.625,75.3959,-16.2581,-14.1686,-81.8489
3.14,466.121,208.78,152.125,75.0037,-19.6086,-167.523,-81.467
3.16,466.347,207.304,153.618,74.6287,-18.7519,42.8334,-81.0589
3.18,466.583,205.837,155.103,74.2954,-16.6639,104.399,-80.6214
3.2,466.83,204.381,156.581,73.8696,-21.2895,-231.279,-80.1552
3.22,467.087,202.932,158.052,73.5506,-15.9537,266.793,-79.6599
3.24,467.357,201.496,159.513,73.0553,-24.7628,-440.456,-79.1315
3.26,467.638,200.07,160.967,72.6939,-18.0685,334.711,-78.5729
3.28,467.931,198.655,162.412,72.2499,-22.2037,-206.757,-77.9795
3.3,468.237,197.252,163.847,71.7717,-23.9051,-85.0717,-77.3518
3.32,468.558,195.862,165.274,71.3318,-21.996,95.4546,-76.6895
3.34,468.891,194.487,166.69,70.7832,-27.4314,-271.766,-75.9852
3.36,469.241,193.124,168.096,70.3276,-22.7793,232.602,-75.2452
3.38,469.605,191.777,169.491,69.752,-28.7814,-300.104,-74.4649
3.4,469.986,190.445,170.877,69.2746,-23.8703,245.556,-73.643
3.42,470.382,189.13,172.25,68.6872,-29.3693,-274.951,-72.7793
3.44,470.795,187.833,173.612,68.073,-30.7102,-67.0444,-71.8696
3.46,471.226,186.552,174.963,67.5654,-25.378,266.608,-70.918
3.48,471.674,185.292,176.3,66.8555,-35.4947,-505.832,-69.9158
3.5,472.14,184.052,177.625,66.2421,-30.6703,241.217,-68.8636
3.52,472.624,182.832,178.937,65.6083,-31.6922,-51.0929,-67.7636
3.54,473.128,181.635,180.237,64.9642,-32.2046,-25.6184,-66.6149
3.56,473.65,180.459,181.523,64.3163,-32.3938,-9.46227,-65.4168
3.58,474.192,179.309,182.794,63.5541,-38.1123,-285.925,-64.1633
3.6,474.753,178.182,184.053,62.9533,-30.0401,403.612,-62.8622
3.62,475.335,177.078,185.302,62.4253,-26.4008,181.963,-61.5159
3.64,475.936,176.001,186.535,61.6458,-38.9706,-628.49,-60.1137
3.66,476.557,174.95,187.755,61.0486,-29.8643,455.313,-58.6674
3.68,477.201,173.924,188.966,60.5433,-25.2633,230.054,-57.1795
3.7,477.863,172.925,190.166,59.9628,-29.0251,-188.094,-55.6507
3.72,478.548,171.952,191.356,59.5061,-22.8352,309.498,-54.0861
3.74,479.255,171.003,192.538,59.1252,-19.0451,189.501,-52.4913
3.76,479.984,170.081,193.714,58.7781,-17.354,84.5563,-50.8711
3.78,480.735,169.183,194.885,58.5438,-11.7171,281.845,-49.2316
3.8,481.511,168.309,196.053,58.4125,-6.563,257.706,-47.5816
3.82,482.311,167.46,197.22,58.3494,-3.15591,170.355,-45.9268
3.84,483.135,166.633,198.387,58.3762,1.34085,224.838,-44.2768
3.86,483.984,165.827,199.558,58.5312,7.74832,320.374,-42.6365
3.88,484.862,165.042,200.736,58.8732,17.0995,467.558,-41.0204
3.9,485.765,164.278,201.919,59.1723,14.9563,-107.158,-39.4317
3.92,486.697,163.533,203.111,59.6169,22.2311,363.737,-37.8739
3.94,487.659,162.806,204.317,60.3026,34.2841,602.649,-36.3698
3.96,488.648,162.097,205.535,60.8729,28.5155,-288.428,-34.9102
3.98,489.669,161.403,206.768,61.6752,40.114,579.924,-33.5067
4,490.719,160.726,208.018,62.4957,41.0278,45.6931,-32.1718
4.02,491.797,160.066,209.282,63.1851,34.4699,-327.897,-30.9017
4.04,492.877,159.434,210.533,62.5763,-30.4405,-3245.52,-29.735
4.06,493.948,158.836,211.76,61.3332,-62.1571,-1585.83,-28.6766
4.08,494.995,158.274,212.948,59.4126,-96.0286,-1693.57,-27.728
4.1,496.026,157.743,214.108,57.9942,-70.9206,1255.4,-26.8813
4.12,497.032,157.242,215.232,56.1836,-90.5278,-980.362,-26.129
4.14,498.008,156.77,216.316,54.2275,-97.8059,-363.901,-25.4694
4.16,498.957,156.325,217.365,52.4065,-91.0502,337.781,-24.8901
4.18,499.873,155.905,218.372,50.3835,-101.151,-505.025,-24.3823
4.2,500.756,155.508,219.34,48.3977,-99.2899,93.0433,-23.9507
4.22,501.601,155.138,220.263,46.1254,-113.616,-716.33,-23.5782
4.24,502.405,154.789,221.139,43.8275,-114.895,-63.9445,-23.2635
4.26,503.168,154.463,221.969,41.4771,-117.517,-131.097,-23.0045
4.28,503.886,154.161,222.748,38.9473,-126.489,-448.605,-22.7839
4.3,504.562,153.878,223.481,36.6604,-114.344,607.266,-22.6037
4.32,505.202,153.613,224.174,34.6301,-101.517,641.36,-22.4629
4.34,505.773,153.377,224.791,30.8553,-188.741,-4361.22,-22.3487
4.36,506.302,153.16,225.363,28.6228,-111.622,3855.99,-22.2605
4.38,506.792,152.96,225.892,26.4597,-108.156,173.275,-22.1986
4.4,507.208,152.791,226.342,22.4655,-199.711,-4577.74,-22.1536
4.42,507.587,152.637,226.75,20.4065,-102.949,4838.09,-22.1173
4.44,507.906,152.508,227.094,17.2138,-159.639,-2834.48,-22.0889
4.46,508.065,152.444,227.266,8.5936,-431.008,-13568.4,-22.0822
4.48,508.223,152.378,227.437,8.5662,-1.36997,21481.9,-22.0755
4.5,508.383,152.314,227.609,8.59491,1.43542,140.27,-22.0689
4.52,508.541,152.25,227.78,8.54726,-2.38264,-190.903,-22.0622
4.54,508.701,152.185,227.952,8.5936,2.31719,234.991,-22.0555
