"time","x","y","position","velocity","acceleration","jerk","heading"
0,514.143,273.193,0,0,0,0,-180
0.02,513.972,273.193,0.170644,8.53219,426.61,21330.5,-179.991
0.04,513.802,273.193,0.341288,8.53219,1.47526e-07,-21330.5,-179.982
0.06,513.631,273.193,0.512193,8.54528,0.654499,32.7249,-179.974
0.08,513.459,273.193,0.683837,8.58219,1.8455,59.5502,-179.965
0.1,513.289,273.193,0.854481,8.53219,-2.5,-217.275,-179.956
0.12,513.065,273.193,1.07751,11.1513,130.955,6672.75,-179.937
0.14,512.661,273.192,1.48237,20.2432,454.596,16182,-179.883
0.16,512.257,273.191,1.88597,20.1801,-3.1545,-22887.5,-179.828
0.18,511.76,273.189,2.38301,24.8519,233.591,11837.3,-179.725
0.2,511.244,273.186,2.8987,25.7843,46.6206,-9348.5,-179.613
0.22,510.646,273.182,3.49707,29.9186,206.713,8004.61,-179.431
0.24,510.017,273.175,4.12656,31.4744,77.7882,-6446.24,-179.215
0.26,509.345,273.165,4.79828,33.586,105.583,1389.74,-178.95
0.28,508.623,273.149,5.51992,36.0821,124.806,961.162,-178.608
0.3,507.863,273.128,6.28075,38.0416,97.9728,-1341.67,-178.182
0.32,507.066,273.099,7.07782,39.8534,90.5901,-369.136,-177.672
0.34,506.235,273.062,7.9095,41.5842,86.5387,-202.572,-177.071
0.36,505.371,273.013,8.77491,43.2701,84.2979,-112.041,-176.371
0.38,504.477,272.95,9.67165,44.837,78.3456,-297.614,-175.565
0.4,503.554,272.871,10.598,46.3177,74.0308,-215.742,-174.645
0.42,502.629,272.776,11.5277,46.4837,8.30249,-3286.41,-173.615
0.44,501.724,272.667,12.4391,45.5691,-45.7287,-2701.56,-172.51
0.46,500.839,272.541,13.3338,44.7354,-41.6879,202.04,-171.344
0.48,499.97,272.399,14.2137,43.9988,-36.829,242.943,-170.123
0.5,499.117,272.242,15.0807,43.3483,-32.5238,215.26,-168.851
0.52,498.281,272.067,15.9348,42.7061,-32.1101,20.684,-167.528
0.54,497.461,271.875,16.7777,42.1459,-28.0113,204.943,-166.166
0.56,496.652,271.666,17.6126,41.7445,-20.072,396.963,-164.77
0.58,495.855,271.439,18.4414,41.438,-15.3226,237.469,-163.352
0.6,495.069,271.193,19.2651,41.1864,-12.5803,137.115,-161.916
0.62,494.292,270.928,20.0867,41.0779,-5.42352,357.84,-160.47
0.64,493.522,270.644,20.9071,41.0222,-2.7885,131.751,-159.02
0.66,492.76,270.341,21.7275,41.0204,-0.0882923,135.01,-157.573
0.68,492.001,270.016,22.5523,41.2366,10.8114,544.986,-156.137
0.7,491.249,269.672,23.38,41.3847,7.4025,-170.446,-154.716
0.72,490.499,269.306,24.2144,41.7198,16.7554,467.645,-153.318
0.74,489.753,268.921,25.0537,41.9695,12.4863,-213.452,-151.944
0.76,489.008,268.513,25.9031,42.4699,25.0178,626.571,-150.602
0.78,488.266,268.083,26.7602,42.8505,19.0299,-299.395,-149.294
0.8,487.526,267.631,27.6274,43.3629,25.6197,329.491,-148.021
0.82,486.787,267.159,28.5046,43.8617,24.9444,-33.7639,-146.789
0.84,486.049,266.665,29.3924,44.3888,26.3532,70.4402,-145.596
0.86,485.312,266.149,30.2923,44.9915,30.1348,189.079,-144.45
0.88,484.577,265.611,31.2028,45.5274,26.7957,-166.954,-143.344
0.9,483.843,265.055,32.1235,46.0371,25.4867,-65.4495,-142.278
0.92,483.11,264.477,33.0573,46.6885,32.5692,354.126,-141.259
0.94,482.378,263.879,34.0033,47.2977,30.4573,-105.599,-140.29
0.96,481.646,263.262,34.96,47.8388,27.0572,-170.001,-139.361
0.98,480.918,262.626,35.9267,48.3315,24.6327,-121.226,-138.47
1,480.191,261.972,36.9042,48.8762,27.2371,130.218,-137.622
1.02,479.464,261.299,37.8954,49.5623,34.3055,353.422,-136.824
1.04,478.738,260.61,38.8963,50.0428,24.0228,-514.139,-136.062
1.06,478.016,259.903,39.9065,50.5116,23.4413,-29.0712,-135.337
1.08,477.293,259.182,40.9277,51.0576,27.3007,192.97,-134.654
1.1,476.574,258.444,41.9584,51.5334,23.7907,-175.502,-134.007
1.12,475.855,257.692,42.9982,51.9929,22.971,-40.9866,-133.397
1.14,475.137,256.924,44.0494,52.5575,28.2322,263.063,-132.826
1.16,474.421,256.144,45.1087,52.9667,20.4574,-388.741,-132.29
1.18,473.706,255.351,46.1761,53.3696,20.147,-15.52,-131.783
1.2,472.992,254.545,47.253,53.8481,23.9277,189.031,-131.313
1.22,472.278,253.726,48.3397,54.3314,24.1632,11.7792,-130.88
1.24,471.566,252.896,49.4332,54.6776,17.3118,-342.571,-130.474
1.26,470.852,252.056,50.5356,55.1181,22.0205,235.434,-130.102
1.28,470.14,251.203,51.6471,55.5732,22.7562,36.7861,-129.762
1.3,469.427,250.342,52.7644,55.8689,14.7877,-398.424,-129.448
1.32,468.713,249.469,53.8922,56.3874,25.9248,556.853,-129.171
1.34,467.998,248.587,55.0278,56.7832,19.7884,-306.82,-128.925
1.36,467.281,247.697,56.1704,57.1277,17.2225,-128.298,-128.706
1.38,466.563,246.798,57.3215,57.5567,21.4518,211.467,-128.518
1.4,465.843,245.89,58.4807,57.9604,20.1847,-63.3563,-128.362
1.42,465.12,244.973,59.6478,58.3515,19.5571,-31.3789,-128.237
1.44,464.393,244.049,60.8233,58.7787,21.3606,90.1774,-128.144
1.46,463.661,243.117,62.0085,59.2584,23.9828,131.106,-128.087
1.48,462.927,242.178,63.2003,59.5895,16.5557,-371.353,-128.057
1.5,462.186,241.233,64.4013,60.0523,23.1391,329.171,-128.06
1.52,461.439,240.279,65.6134,60.602,27.4845,217.269,-128.108
1.54,460.685,239.318,66.8347,61.0648,23.1414,-217.154,-128.189
1.56,459.923,238.351,68.0653,61.5324,23.3787,11.8627,-128.304
1.58,459.152,237.378,69.3074,62.1049,28.6277,262.449,-128.464
1.6,458.371,236.398,70.56,62.6306,26.2826,-117.252,-128.666
1.62,457.594,235.432,71.8004,62.0169,-30.682,-2848.23,-128.91
1.64,456.841,234.502,72.9972,59.839,-108.899,-3910.87,-129.185
1.66,456.115,233.615,74.143,57.2905,-127.421,-926.097,-129.493
1.68,455.417,232.774,75.236,54.6515,-131.952,-226.552,-129.824
1.7,454.751,231.979,76.273,51.8521,-139.971,-400.915,-130.171
1.72,454.115,231.23,77.2555,49.1239,-136.407,178.17,-130.531
1.74,453.508,230.525,78.186,46.5243,-129.98,321.346,-130.9
1.76,452.914,229.844,79.0896,45.1794,-67.2441,3136.82,-131.295
1.78,452.308,229.16,80.0033,45.6848,25.2673,4625.57,-131.73
1.8,451.691,228.473,80.9262,46.147,23.1106,-107.833,-132.199
1.82,451.063,227.784,81.8588,46.6304,24.1704,52.9897,-132.706
1.84,450.419,227.095,82.8023,47.1708,27.022,142.582,-133.253
1.86,449.76,226.401,83.7593,47.854,34.1569,356.742,-133.853
1.88,449.084,225.704,84.7299,48.526,33.6021,-27.7412,-134.505
1.9,448.39,225.007,85.7136,49.1892,33.1601,-22.0971,-135.208
1.92,447.677,224.307,86.7126,49.9459,37.8351,233.75,-135.966
1.94,446.943,223.607,87.7267,50.7058,37.9932,7.90279,-136.784
1.96,446.183,222.904,88.7622,51.7757,53.4982,775.252,-137.685
1.98,445.396,222.199,89.819,52.8396,53.1943,-15.1953,-138.665
2,444.58,221.494,90.8967,53.8874,52.3886,-40.2872,-139.727
2.02,443.731,220.788,92.0016,55.2422,67.7395,767.548,-140.893
2.04,442.841,220.08,93.1385,56.8476,80.2721,626.631,-142.178
2.06,441.928,219.387,94.2846,57.3053,22.8845,-2869.38,-143.5
2.08,440.957,218.687,95.4817,59.8508,127.276,5219.55,-145.016
2.1,439.946,218,96.7041,61.1215,63.5327,-3187.14,-146.631
2.12,438.891,217.325,97.9565,62.6205,74.9502,570.879,-148.357
2.14,437.777,216.662,99.2526,64.8071,109.329,1718.95,-150.254
2.16,436.601,216.017,100.594,67.07,113.145,190.777,-152.323
2.18,435.369,215.4,101.972,68.9042,91.709,-1071.78,-154.531
2.2,434.067,214.81,103.402,71.4778,128.684,1848.76,-156.937
2.22,432.697,214.261,104.877,73.7828,115.248,-671.785,-159.516
2.24,431.278,213.768,106.379,75.1051,66.1124,-2456.8,-162.2
2.26,429.771,213.325,107.95,78.552,172.348,5311.77,-165.147
2.28,428.209,212.955,109.556,80.2801,86.4052,-4297.13,-168.222
2.3,426.605,212.665,111.186,81.4842,60.2035,-1310.08,-171.392
2.32,424.964,212.463,112.84,82.695,60.5382,16.735,-174.654
2.34,423.289,212.356,114.518,83.9181,61.1596,31.067,-178.011
2.36,421.611,212.347,116.196,83.898,-1.00784,-3108.37,178.635
2.38,419.936,212.436,117.873,83.8265,-3.57221,-128.219,175.283
2.4,418.292,212.619,119.527,82.7313,-54.7634,-2559.56,172.018
2.42,416.688,212.891,121.154,81.3609,-68.5207,-687.869,168.859
2.44,415.125,213.244,122.756,80.1075,-62.6698,292.546,165.794
2.46,413.618,213.667,124.321,78.2444,-93.1539,-1524.21,162.872
2.48,412.194,214.144,125.824,75.1146,-156.49,-3166.81,160.187
2.5,410.823,214.675,127.293,73.4744,-82.0107,3723.97,157.631
2.52,409.512,215.248,128.725,71.581,-94.6699,-632.958,155.219
2.54,408.274,215.85,130.101,68.7924,-139.429,-2237.96,153.018
2.56,407.099,216.477,131.433,66.5971,-109.764,1483.25,150.984
2.58,405.978,217.125,132.728,64.7717,-91.2705,924.681,149.094
2.6,404.913,217.785,133.98,62.6174,-107.714,-822.184,147.364
2.62,403.897,218.458,135.199,60.9381,-83.9674,1187.34,145.765
2.64,402.916,219.146,136.397,59.9026,-51.7738,1609.68,144.246
2.66,401.999,219.824,137.538,57.0304,-143.607,-4591.68,142.945
2.68,401.106,220.515,138.667,56.4475,-29.1457,5723.09,141.685
2.7,400.246,221.209,139.772,55.2589,-59.4306,-1514.24,140.522
2.72,399.423,221.902,140.848,53.8156,-72.1668,-636.809,139.466
2.74,398.628,222.593,141.901,52.647,-58.4295,686.863,138.498
2.76,397.863,223.281,142.93,51.4352,-60.5875,-107.901,137.625
2.78,397.122,223.967,143.94,50.5008,-46.7244,693.154,136.824
2.8,396.402,224.651,144.933,49.6735,-41.3652,267.961,136.085
2.82,395.703,225.335,145.911,48.8776,-39.7946,78.5286,135.406
2.84,395.02,226.015,146.875,48.1904,-34.3576,271.852,134.782
2.86,394.358,226.69,147.821,47.306,-44.2183,-493.037,134.223
2.88,393.709,227.362,148.754,46.6782,-31.3934,641.247,133.715
2.9,393.076,228.03,149.675,46.0132,-33.2506,-92.8614,133.253
2.92,392.455,228.695,150.585,45.5084,-25.2365,400.706,132.833
2.94,391.846,229.357,151.484,44.9694,-26.9515,-85.7489,132.455
2.96,391.252,230.01,152.367,44.1358,-41.6784,-736.347,132.136
2.98,390.668,230.659,153.24,43.6468,-24.4506,861.391,131.858
3,390.094,231.303,154.103,43.137,-25.4931,-52.1244,131.617
3.02,389.529,231.943,154.957,42.6985,-21.9246,178.427,131.413
3.04,388.972,232.576,155.8,42.148,-27.523,-279.923,131.246
3.06,388.424,233.203,156.633,41.6519,-24.8075,135.776,131.123
3.08,387.877,233.829,157.464,41.5666,-4.26226,1027.26,131.004
3.1,387.306,234.49,158.337,43.6643,104.886,5457.43,130.723
3.12,386.721,235.174,159.238,45.0285,68.2101,-1833.81,130.339
3.14,386.152,235.849,160.12,44.1161,-45.6214,-5691.57,130.024
3.16,385.599,236.512,160.984,43.186,-46.5047,-44.1634,129.781
3.18,385.063,237.157,161.822,41.93,-62.8027,-814.899,129.632
3.2,384.539,237.792,162.645,41.1316,-39.9162,1144.32,129.545
3.22,384.024,238.418,163.456,40.5419,-29.4868,521.47,129.506
3.24,383.516,239.033,164.254,39.8881,-32.6905,-160.187,129.514
3.26,383.022,239.632,165.03,38.8147,-53.6689,-1048.92,129.604
3.28,382.535,240.219,165.793,38.1331,-34.0821,979.336,129.748
3.3,382.055,240.795,166.543,37.5122,-31.0435,151.934,129.936
3.32,381.579,241.362,167.283,36.9882,-26.1993,242.21,130.166
3.34,381.107,241.918,168.012,36.4528,-26.7719,-28.6311,130.438
3.36,380.645,242.458,168.723,35.5776,-43.759,-849.356,130.776
3.38,380.184,242.989,169.426,35.1181,-22.973,1039.3,131.15
3.4,379.726,243.51,170.12,34.7243,-19.6927,164.018,131.553
3.42,379.267,244.023,170.808,34.402,-16.1162,178.823,131.979
3.44,378.808,244.53,171.492,34.2017,-10.012,305.208,132.422
3.46,378.346,245.032,172.174,34.0917,-5.50306,225.449,132.875
3.48,377.878,245.531,172.858,34.2225,6.54343,602.325,133.317
3.5,377.402,246.033,173.55,34.5546,16.6043,503.046,133.733
3.52,376.916,246.538,174.251,35.0851,26.5218,495.871,134.108
3.54,376.415,247.05,174.967,35.8051,36.0017,473.995,134.425
3.56,375.895,247.579,175.709,37.0911,64.3004,1414.94,134.649
3.58,375.355,248.124,176.476,38.3473,62.8098,-74.5306,134.777
3.6,374.797,248.685,177.267,39.5682,61.043,-88.3419,134.809
3.62,374.221,249.264,178.085,40.8771,65.4498,220.34,134.741
3.64,373.628,249.864,178.928,42.1606,64.1721,-63.8846,134.575
3.66,373.015,250.488,179.803,43.7283,78.3836,710.576,134.292
3.68,372.392,251.131,180.698,44.7692,52.0487,-1316.75,133.927
3.7,371.761,251.79,181.61,45.6122,42.1502,-494.926,133.498
3.72,371.126,252.464,182.536,46.2871,33.7415,-420.437,133.018
3.74,370.491,253.151,183.472,46.7991,25.6019,-406.979,132.5
3.76,369.857,253.849,184.415,47.1573,17.9101,-384.588,131.953
3.78,369.228,254.556,185.361,47.2714,5.70625,-610.195,131.399
3.8,368.607,255.266,186.305,47.1969,-3.72802,-471.713,130.847
3.82,367.995,255.982,187.246,47.0575,-6.97041,-162.12,130.308
3.84,367.393,256.698,188.182,46.8126,-12.2418,-263.569,129.787
3.86,366.802,257.414,189.11,46.42,-19.6332,-369.569,129.296
3.88,366.221,258.13,190.032,46.1018,-15.9062,186.348,128.832
3.9,365.651,258.845,190.947,45.7086,-19.6615,-187.762,128.395
3.92,365.092,259.556,191.851,45.239,-23.4822,-191.035,127.994
3.94,364.544,260.262,192.744,44.6449,-29.703,-311.042,127.635
3.96,364.015,260.952,193.615,43.5216,-56.163,-1323,127.318
3.98,363.522,261.603,194.431,40.834,-134.383,-3910.99,127.045
4,363.067,262.208,195.188,37.8352,-149.937,-777.721,126.82
4.02,362.653,262.763,195.881,34.6208,-160.722,-539.254,126.645
4.04,362.301,263.237,196.471,29.5036,-255.859,-4756.84,126.521
4.06,361.963,263.696,197.041,28.5231,-49.0271,10341.6,126.407
4.08,361.704,264.048,197.477,21.811,-335.605,-14328.9,126.339
4.1,361.446,264.399,197.913,21.7945,-0.82536,16739,126.27
4.12,361.288,264.616,198.182,13.4265,-418.397,-20878.6,126.239
4.14,361.184,264.757,198.357,8.75137,-233.759,9231.9,126.229
4.16,361.079,264.899,198.533,8.83436,4.1494,11895.4,126.218
4.18,360.976,265.041,198.709,8.79173,-2.13134,-314.037,126.208
4.2,360.872,265.184,198.885,8.80482,0.6545,139.292,126.197
4.22,360.768,265.325,199.061,8.76446,-2.01807,-133.628,126.186
