"time","x","y","position","velocity","acceleration","jerk","heading"
0,514.143,288.193,0,0,150,0,-180
0.02,513.97,288.193,0.173205,3,150,0,-179.991
0.04,513.797,288.193,0.34641,6,150,0,-179.982
0.06,513.624,288.193,0.519615,9,150,0,-179.973
0.08,513.45,288.193,0.69282,12,150,0,-179.964
0.1,513.277,288.193,0.866025,15,150,0,-179.955
0.12,513.049,288.193,1.09471,18,150,0,-179.935
0.14,512.63,288.192,1.51286,21,150,0,-179.878
0.16,512.212,288.191,1.93102,24,150,0,-179.82
0.18,511.688,288.189,2.45505,27,150,0,-179.711
0.2,511.143,288.186,3,30,150,0,-179.591
0.22,510.497,288.181,3.64641,33,150,0,-179.397
0.24,509.811,288.172,4.33237,36,150,0,-179.167
0.26,509.07,288.16,5.07309,39,150,0,-178.883
0.28,508.259,288.142,5.88465,42,150,0,-178.518
0.3,507.387,288.116,6.75708,45,150,0,-178.072
0.32,506.458,288.081,7.68717,48,150,0,-177.54
0.34,505.469,288.033,8.67644,51,150,0,-176.906
0.36,504.423,287.97,9.72525,54,150,0,-176.163
0.38,503.318,287.888,10.8333,57,150,0,-175.306
0.4,502.156,287.783,12,60,4.08231e-05,0,-174.33
0.42,500.963,287.653,13.2,60,0,0,-173.241
0.44,499.772,287.5,14.4,60,0,0,-172.082
0.46,498.586,287.323,15.6,60,0,0,-170.858
0.48,497.403,287.119,16.8,60,0,0,-169.575
0.5,496.226,286.888,18,60,0,0,-168.235
0.52,495.054,286.63,19.2,60,0,0,-166.844
0.54,493.889,286.342,20.4,60,0,0,-165.417
0.56,492.731,286.025,21.6,60,0,0,-163.961
0.58,491.582,285.679,22.8,60,0,0,-162.483
0.6,490.443,285.303,24,60,0,0,-160.991
0.62,489.314,284.897,25.2,60,0,0,-159.491
0.64,488.195,284.462,26.4,60,0,0,-157.993
0.66,487.089,283.998,27.6,60,0,0,-156.503
0.68,485.995,283.506,28.8,60,0,0,-155.028
0.7,484.913,282.985,30,60,0,0,-153.575
0.72,483.846,282.438,31.2,60,0,0,-152.15
0.74,482.792,281.864,32.4,60,0,0,-150.756
0.76,481.752,281.265,33.6,60,0,0,-149.396
0.78,480.726,280.642,34.8,60,0,0,-148.076
0.8,479.715,279.996,36,60,0,0,-146.799
0.82,478.718,279.328,37.2,60,0,0,-145.571
0.84,477.735,278.64,38.4,60,0,0,-144.385
0.86,476.767,277.931,39.6,60,0,0,-143.243
0.88,475.813,277.203,40.8,60,0,0,-142.149
0.9,474.872,276.458,42,60,0,0,-141.105
0.92,473.945,275.697,43.2,60,0,0,-140.113
0.94,473.03,274.919,44.4,60,0,0,-139.163
0.96,472.129,274.127,45.6,60,0,0,-138.258
0.98,471.24,273.322,46.8,60,0,0,-137.402
1,470.362,272.503,48,60,0,0,-136.59
1.02,469.496,271.672,49.2,60,0,0,-135.824
1.04,468.641,270.831,50.4,60,0,0,-135.098
1.06,467.796,269.978,51.6,60,0,0,-134.417
1.08,466.961,269.116,52.8,60,0,0,-133.777
1.1,466.136,268.245,54,60,0,0,-133.172
1.12,465.319,267.366,55.2,60,0,0,-132.609
1.14,464.511,266.479,56.4,60,0,0,-132.09
1.16,463.711,265.585,57.6,60,0,0,-131.604
1.18,462.918,264.685,58.8,60,0,0,-131.151
1.2,462.131,263.778,60,60,0,0,-130.735
1.22,461.351,262.866,61.2,60,0,0,-130.361
1.24,460.577,261.949,62.4,60,0,0,-130.018
1.26,459.808,261.028,63.6,60,0,0,-129.708
1.28,459.044,260.103,64.8,60,0,0,-129.435
1.3,458.284,259.174,66,60,0,0,-129.195
1.32,457.527,258.243,67.2,60,0,0,-128.989
1.34,456.774,257.309,68.4,60,0,0,-128.819
1.36,456.023,256.373,69.6,60,0,0,-128.686
1.38,455.274,255.436,70.8,60,0,0,-128.585
1.4,454.526,254.497,72,60,0,0,-128.517
1.42,453.779,253.558,73.2,60,0,0,-128.494
1.44,453.032,252.619,74.4,60,0,0,-128.51
1.46,452.284,251.68,75.6,60,0,0,-128.561
1.48,451.536,250.742,76.8,60,0,0,-128.65
1.5,450.785,249.806,78,60,-1.62727e-05,0,-128.787
1.52,450.033,248.872,79.199,59.875,-59.8822,0,-128.975
1.54,449.287,247.954,80.3821,58.3849,-150,0,-129.204
1.56,448.567,247.074,81.519,55.3849,-150,0,-129.469
1.58,447.88,246.244,82.5962,52.3849,-150,0,-129.767
1.6,447.227,245.464,83.6133,49.3849,-150,0,-130.096
1.62,446.609,244.734,84.5697,46.3849,-150,0,-130.447
1.64,446.026,244.054,85.4659,43.3849,-150,0,-130.815
1.66,445.477,243.422,86.3035,40.3849,-150,0,-131.193
1.68,444.959,242.834,87.0866,37.3849,-150,0,-131.577
1.7,444.484,242.302,87.7995,34.3849,-150,0,-131.962
1.72,444.049,241.822,88.4475,31.3849,-150,0,-132.34
1.74,443.637,241.372,89.0582,28.3849,-150,0,-132.712
1.76,443.285,240.993,89.5745,25.3849,-150,0,-133.058
1.78,442.948,240.634,90.0667,22.3849,-139.991,0,-133.394
1.8,442.687,240.36,90.4459,19.3849,-83.1215,0,-133.679
1.82,442.425,240.086,90.825,16.3849,-26.2522,0,-133.964
1.84,442.191,239.844,91.1615,15,0,0,-134.23
1.86,441.981,239.63,91.4615,15,0,0,-134.481
1.88,441.77,239.416,91.7615,15,0,0,-134.731
1.9,441.559,239.203,92.0615,15,0,0,-134.986
1.92,441.346,238.992,92.3615,15,0,0,-135.264
1.94,441.133,238.781,92.6615,15,0,0,-135.541
1.96,440.918,238.571,92.9615,15,0,0,-135.818
1.98,440.703,238.363,93.2615,15,0,0,-136.122
2,440.486,238.155,93.5615,15,0,0,-136.429
2.02,440.268,237.949,93.8615,15,0,0,-136.736
2.04,440.049,237.744,94.1615,15,0,0,-137.062
2.06,439.829,237.54,94.4615,15,0,0,-137.403
2.08,439.608,237.338,94.7615,15,0,0,-137.744
2.1,439.385,237.136,95.0615,15,0,0,-138.095
2.12,439.161,236.937,95.3615,15,0,0,-138.489
2.14,438.936,236.738,95.6615,15,0,0,-138.883
2.16,438.71,236.542,95.9615,15,0,0,-139.276
2.18,438.482,236.347,96.2615,15,0,0,-139.683
2.2,438.252,236.153,96.5615,15,0,0,-140.091
2.22,438.022,235.961,96.8615,15,0,0,-140.5
2.24,437.79,235.771,97.1615,15,0,0,-140.947
2.26,437.556,235.583,97.4615,15,0,0,-141.428
2.28,437.321,235.396,97.7615,15,0,0,-141.909
2.3,437.084,235.212,98.0615,15,0,0,-142.394
2.32,436.846,235.03,98.3615,15,0,0,-142.893
2.34,436.606,234.85,98.6615,15,0,0,-143.392
2.36,436.365,234.672,98.9615,15,0,0,-143.891
2.38,436.122,234.496,99.2615,15,0,0,-144.476
2.4,435.877,234.322,99.5615,15,0,0,-145.074
2.42,435.63,234.152,99.8615,15,0,0,-145.672
2.44,435.382,233.983,100.162,15,0,0,-146.283
2.46,435.132,233.818,100.462,15,0,0,-146.906
2.48,434.88,233.655,100.762,15,0,0,-147.528
2.5,434.626,233.495,101.062,15,0,0,-148.172
2.52,434.37,233.338,101.362,15,0,0,-148.897
2.54,434.113,233.185,101.662,15,0,0,-149.621
2.56,433.853,233.034,101.962,15,0,0,-150.346
2.58,433.591,232.887,102.262,15,0,0,-151.121
2.6,433.328,232.743,102.562,15,0,0,-151.902
2.62,433.063,232.603,102.862,15,0,0,-152.684
2.64,432.795,232.467,103.162,15,0,0,-153.506
2.66,432.526,232.335,103.462,15,0,0,-154.361
2.68,432.255,232.207,103.762,15,0,0,-155.216
2.7,431.982,232.083,104.062,15,0,0,-156.093
2.72,431.707,231.963,104.362,15,0,0,-157.054
2.74,431.43,231.848,104.662,15,0,0,-158.015
2.76,431.151,231.738,104.962,15,0,0,-158.976
2.78,430.87,231.632,105.262,15,0,0,-159.984
2.8,430.587,231.532,105.562,15,0,0,-160.998
2.82,430.303,231.436,105.862,15,0,0,-162.013
2.84,430.017,231.346,106.162,15,0,0,-163.079
2.86,429.729,231.261,106.462,15,0,0,-164.189
2.88,429.44,231.182,106.762,15,0,0,-165.3
2.9,429.149,231.108,107.062,15,0,0,-166.424
2.92,428.857,231.04,107.362,15,0,0,-167.599
2.94,428.563,230.978,107.662,15,0,0,-168.774
2.96,428.268,230.923,107.962,15,0,0,-169.949
2.98,427.972,230.873,108.262,15,0,0,-171.159
3,427.676,230.83,108.562,15,0,0,-172.374
3.02,427.378,230.793,108.862,15,0,0,-173.588
3.04,427.079,230.763,109.162,15,0,0,-174.826
3.06,426.78,230.739,109.462,15,0,0,-176.084
3.08,426.481,230.722,109.762,15,0,0,-177.341
3.1,426.181,230.711,110.062,15,0,0,-178.599
3.12,425.881,230.707,110.362,15,0,0,-179.855
3.14,425.581,230.71,110.662,15,0,0,178.888
3.16,425.281,230.719,110.962,15,0,0,177.632
3.18,424.982,230.734,111.262,15,0,0,176.385
3.2,424.682,230.757,111.562,15,0,0,175.14
3.22,424.384,230.786,111.862,15,0,0,173.895
3.24,424.086,230.821,112.162,15,0,0,172.674
3.26,423.789,230.862,112.462,15,0,0,171.473
3.28,423.493,230.91,112.762,15,0,0,170.271
3.3,423.198,230.964,113.062,15,0,0,169.084
3.32,422.904,231.024,113.362,15,0,0,167.949
3.34,422.611,231.09,113.662,15,0,0,166.815
3.36,422.32,231.162,113.962,15,0,0,165.681
3.38,422.03,231.239,114.262,15,0,0,164.589
3.4,421.742,231.322,114.562,15,0,0,163.502
3.42,421.455,231.41,114.862,15,0,0,162.416
3.44,421.17,231.504,115.162,15,0,0,161.387
3.46,420.886,231.603,115.462,15,0,0,160.406
3.48,420.605,231.706,115.762,15,0,0,159.426
3.5,420.325,231.814,116.062,15,0,0,158.46
3.52,420.047,231.927,116.362,15,0,0,157.552
3.54,419.771,232.044,116.662,15,0,0,156.644
3.56,419.497,232.166,116.962,15,0,0,155.736
3.58,419.224,232.292,117.262,15,0,0,154.881
3.6,418.954,232.421,117.562,15,0,0,154.034
3.62,418.685,232.555,117.862,15,0,0,153.187
3.64,418.419,232.692,118.162,15,0,0,152.402
3.66,418.154,232.833,118.462,15,0,0,151.67
3.68,417.891,232.978,118.762,15,0,0,150.937
3.7,417.63,233.126,119.062,15,0,0,150.211
3.72,417.371,233.277,119.362,15,0,0,149.512
3.74,417.113,233.431,119.662,15,0,0,148.812
3.76,416.858,233.588,119.962,15,0,0,148.112
3.78,416.604,233.748,120.262,15,0,0,147.502
3.8,416.352,233.911,120.562,15,0,0,146.905
3.82,416.102,234.076,120.862,15,0,0,146.308
3.84,415.853,234.244,121.162,15,0,0,145.729
3.86,415.606,234.415,121.462,15,0,0,145.166
3.88,415.361,234.588,121.762,15,0,0,144.604
3.9,415.118,234.763,122.062,15,0,0,144.055
3.92,414.876,234.941,122.362,15,0,0,143.563
3.94,414.635,235.12,122.662,15,0,0,143.072
3.96,414.397,235.302,122.962,15,0,0,142.58
3.98,414.159,235.485,123.262,15,0,0,142.122
4,413.924,235.671,123.562,15,0,0,141.669
4.02,413.689,235.858,123.862,15,0,0,141.216
4.04,413.456,236.047,124.162,15,0,0,140.791
4.06,413.225,236.238,124.462,15,0,0,140.389
4.08,412.994,236.43,124.762,15,0,0,139.988
4.1,412.765,236.624,125.062,15,0,0,139.592
4.12,412.538,236.819,125.362,15,0,0,139.218
4.14,412.312,237.016,125.662,15,0,0,138.843
4.16,412.086,237.215,125.962,15,0,0,138.469
4.18,411.863,237.414,126.262,15,0,0,138.136
4.2,411.64,237.615,126.562,15,0,0,137.809
4.22,411.418,237.817,126.862,15,0,0,137.482
4.24,411.198,238.021,127.162,15,0,0,137.173
4.26,410.978,238.225,127.462,15,0,0,136.88
4.28,410.76,238.431,127.762,15,0,0,136.586
4.3,410.543,238.638,128.062,15,0,0,136.299
4.32,410.326,238.846,128.362,15,0,0,136.036
4.34,410.111,239.055,128.662,15,0,0,135.772
4.36,409.897,239.264,128.962,15,0,0,135.509
4.38,409.683,239.475,129.262,15,0,0,135.27
4.4,409.47,239.687,129.562,15,0,0,135.034
4.42,409.259,239.899,129.862,15,0,0,134.798
4.44,409.048,240.113,130.162,15,0,0,134.577
4.46,408.838,240.327,130.462,15,0,0,134.366
4.48,408.628,240.542,130.762,15,0,0,134.156
4.5,408.42,240.757,131.062,15,0,0,133.951
4.52,408.212,240.974,131.362,15,0,0,133.765
4.54,408.005,241.191,131.662,15,0,0,133.578
4.56,407.798,241.408,131.962,15,0,0,133.392
4.58,407.593,241.627,132.262,15,0,0,133.225
4.6,407.388,241.846,132.562,15,0,0,133.061
4.62,407.183,242.065,132.862,15,0,0,132.897
4.64,406.979,242.285,133.162,15,0,0,132.746
4.66,406.776,242.506,133.462,15,0,0,132.605
4.68,406.573,242.727,133.762,15,0,0,132.465
4.7,406.371,242.949,134.062,15,0,0,132.328
4.72,406.169,243.171,134.362,15,0,0,132.208
4.74,405.968,243.393,134.662,15,0,0,132.087
4.76,405.767,243.616,134.962,15,0,0,131.967
4.78,405.567,243.839,135.262,15,0,0,131.863
4.8,405.367,244.063,135.562,15,0,0,131.762
4.82,405.167,244.287,135.862,15,0,0,131.661
4.84,404.968,244.511,136.162,15,0,0,131.57
4.86,404.769,244.736,136.462,15,0,0,131.487
4.88,404.571,244.961,136.762,15,0,0,131.405
4.9,404.372,245.186,137.062,15,0,0,131.327
4.92,404.175,245.411,137.362,15,0,0,131.263
4.94,403.977,245.637,137.662,15,0,0,131.2
4.96,403.779,245.863,137.962,15,0,0,131.136
4.98,403.582,246.089,138.262,15,0,0,130.995
5,403.385,246.315,138.562,15,0,0,130.842
5.02,403.189,246.542,138.862,15,0,0,130.69
5.04,402.994,246.77,139.162,15,0,0,130.415
5.06,402.8,246.999,139.462,15,0,0,130.036
5.08,402.608,247.229,139.762,15,0,0,129.656
5.1,402.417,247.461,140.062,15,0,0,129.29
5.12,402.228,247.694,140.362,15,0,0,128.973
5.14,402.04,247.928,140.662,15,0,0,128.656
5.16,401.854,248.163,140.962,15,0,0,128.339
5.18,401.668,248.399,141.262,15,0,0,128.053
5.2,401.484,248.636,141.562,15,0,0,127.77
5.22,401.301,248.873,141.862,15,0,0,127.488
5.24,401.119,249.112,142.162,15,0,0,127.223
5.26,400.938,249.351,142.462,15,0,0,126.974
5.28,400.759,249.591,142.762,15,0,0,126.725
5.3,400.58,249.832,143.062,15,0,0,126.484
5.32,400.402,250.074,143.362,15,0,0,126.276
5.34,400.225,250.316,143.662,15,0,0,126.069
5.36,400.049,250.559,143.962,15,0,0,125.862
5.38,399.874,250.802,144.262,15,0,0,125.679
5.4,399.699,251.046,144.562,15,0,0,125.5
5.42,399.525,251.291,144.862,15,0,0,125.321
5.44,399.353,251.536,145.162,15,0,0,125.156
5.46,399.18,251.782,145.462,15,0,0,125.002
5.48,399.009,252.028,145.762,15,0,0,124.848
5.5,398.838,252.274,146.062,15,0,0,124.699
5.52,398.667,252.521,146.362,15,0,0,124.57
5.54,398.497,252.769,146.662,15,0,0,124.442
5.56,398.328,253.016,146.962,15,0,0,124.313
5.58,398.159,253.264,147.262,15,0,0,124.21
5.6,397.991,253.512,147.562,15,0,0,124.112
5.62,397.823,253.761,147.862,15,0,0,124.013
5.64,397.655,254.01,148.162,15,0,0,123.93
5.66,397.488,254.259,148.462,15,0,0,123.859
5.68,397.321,254.508,148.762,15,0,0,123.788
5.7,397.154,254.758,149.062,15,0,0,123.723
5.72,396.988,255.007,149.362,15,0,0,123.678
5.74,396.822,255.257,149.662,15,0,0,123.633
5.76,396.656,255.507,149.962,15,0,0,123.588
5.78,396.49,255.757,150.262,15,0,0,123.566
5.8,396.324,256.007,150.562,15,0,0,123.548
5.82,396.159,256.257,150.862,15,0,0,123.529
5.84,395.993,256.507,151.162,15,0,0,123.526
5.86,395.828,256.758,151.462,15,0,0,123.535
5.88,395.662,257.008,151.762,15,0,0,123.545
5.9,395.496,257.258,152.062,15,0,0,123.56
5.92,395.33,257.508,152.362,15,0,0,123.597
5.94,395.164,257.758,152.662,15,0,0,123.634
5.96,394.998,258.007,152.962,15,0,0,123.671
5.98,394.832,258.257,153.262,15,0,0,123.731
6,394.665,258.506,153.562,15,0,0,123.795
6.02,394.498,258.756,153.862,15,0,0,123.859
6.04,394.331,259.005,154.162,15,0,0,123.935
6.06,394.163,259.254,154.462,15,0,0,124.022
6.08,393.995,259.502,154.762,15,0,0,124.11
6.1,393.827,259.75,155.062,15,0,0,124.201
6.12,393.658,259.998,155.362,15,0,0,124.307
6.14,393.489,260.246,155.662,15,0,0,124.413
6.16,393.319,260.493,155.962,15,0,0,124.519
6.18,393.149,260.74,156.262,15,0,0,124.636
6.2,392.978,260.987,156.562,15,0,0,124.754
6.22,392.807,261.233,156.862,15,0,0,124.872
6.24,392.635,261.479,157.162,15,0,0,124.989
6.26,392.463,261.725,157.462,15,0,0,125.106
6.28,392.29,261.97,157.762,15,0,0,125.222
6.3,392.117,262.215,158.062,15,0,0,125.338
6.32,391.943,262.46,158.362,15,0,0,125.45
6.34,391.769,262.704,158.662,15,0,0,125.561
6.36,391.594,262.948,158.962,15,0,0,125.673
6.38,391.419,263.191,159.262,15,0,0,125.776
6.4,391.243,263.434,159.562,15,0,0,125.878
6.42,391.067,263.677,159.862,15,0,0,125.98
6.44,390.89,263.92,160.162,15,0,0,126.07
6.46,390.713,264.162,160.462,15,0,0,126.15
6.48,390.536,264.404,160.762,15,0,0,126.23
6.5,390.359,264.646,161.062,15,0,0,126.308
6.52,390.181,264.887,161.362,15,0,0,126.378
6.54,390.003,265.129,161.662,15,0,0,126.448
6.56,389.824,265.37,161.962,15,0,0,126.518
6.58,389.645,265.611,162.262,15,0,0,126.566
6.6,389.466,265.852,162.562,15,0,0,126.609
6.62,389.287,266.092,162.862,15,0,0,126.653
6.64,389.108,266.333,163.162,15,0,0,126.687
6.66,388.929,266.574,163.462,15,0,0,126.713
6.68,388.749,266.814,163.762,15,0,0,126.738
6.7,388.57,267.054,164.062,15,0,0,126.761
6.72,388.39,267.295,164.362,15,0,0,126.771
6.74,388.211,267.535,164.662,15,0,0,126.782
6.76,388.031,267.775,164.962,15,0,0,126.792
6.78,387.851,268.015,165.262,15,0,0,126.792
6.8,387.672,268.256,165.562,15,0,0,126.79
6.82,387.492,268.496,165.862,15,0,0,126.788
6.84,387.312,268.736,166.162,15,0,0,126.78
6.86,387.133,268.976,166.462,15,0,0,126.767
6.88,386.953,269.217,166.762,15,0,0,126.755
6.9,386.774,269.457,167.062,15,0,0,126.741
6.92,386.594,269.697,167.362,15,0,0,126.723
6.94,386.415,269.938,167.662,15,0,0,126.704
6.96,386.235,270.178,167.962,15,0,0,126.686
6.98,386.056,270.419,168.262,15,0,0,126.665
7,385.877,270.66,168.562,15,0,0,126.642
7.02,385.698,270.9,168.862,15,0,0,126.62
7.04,385.519,271.141,169.162,15,0,0,126.597
7.06,385.34,271.382,169.462,15,0,0,126.573
7.08,385.162,271.623,169.762,15,0,0,126.549
7.1,384.983,271.864,170.062,15,0,0,126.525
7.12,384.805,272.105,170.362,15,0,0,126.5
7.14,384.626,272.347,170.662,15,0,0,126.475
7.16,384.448,272.588,170.962,15,0,0,126.45
7.18,384.27,272.829,171.262,15,0,0,126.426
7.2,384.092,273.071,171.562,15,0,0,126.403
7.22,383.914,273.312,171.862,15,0,0,126.379
7.24,383.736,273.554,172.162,15,0,0,126.357
7.26,383.558,273.795,172.462,15,0,0,126.336
7.28,383.38,274.037,172.762,15,0,0,126.315
7.3,383.203,274.279,173.062,15,0,0,126.294
7.32,383.025,274.521,173.362,15,0,0,126.276
7.34,382.848,274.763,173.662,15,0,0,126.257
7.36,382.67,275.004,173.962,15,0,0,126.239
7.38,382.493,275.246,174.262,15,-29.422,0,126.224
7.4,382.316,275.488,174.562,15,-63.172,0,126.211
7.42,382.139,275.731,174.862,15,-96.922,0,126.197
7.44,382.009,275.908,175.081,13.7885,-112.5,0,126.189
7.46,381.921,276.029,175.231,11.5385,-112.5,0,126.185
7.48,381.832,276.15,175.381,9.28853,-112.5,0,126.182
7.5,381.744,276.271,175.531,7.03853,-112.5,0,126.179
7.52,381.655,276.392,175.681,4.78853,-112.5,0,126.175
7.54,381.567,276.513,175.831,2.53853,-112.5,0,126.172
7.56,381.478,276.634,175.981,0.288535,-112.5,0,126.169
