"time","x","y","position","velocity","acceleration","jerk","heading"
0,514.143,273.193,0,0,0,0,-180
0.02,513.972,273.193,0.170644,8.53219,426.61,21330.5,-179.991
0.04,513.802,273.193,0.341288,8.53219,1.47526e-07,-21330.5,-179.982
0.06,513.631,273.193,0.511931,8.53219,2.94484e-07,7.34788e-06,-179.973
0.08,513.459,273.193,0.683575,8.58219,2.5,125,-179.964
0.1,513.289,273.193,0.854219,8.53219,-2.5,-250,-179.955
0.12,513.066,273.193,1.07698,11.1382,130.301,6640.03,-179.935
0.14,512.662,273.192,1.48106,20.2039,453.287,16149.3,-179.878
0.16,512.259,273.191,1.88388,20.1408,-3.1545,-22822.1,-179.82
0.18,511.764,273.189,2.37935,24.7734,231.627,11739.1,-179.711
0.2,511.25,273.186,2.89294,25.6796,45.3116,-9315.78,-179.591
0.22,510.655,273.182,3.48817,29.7615,204.095,7939.17,-179.397
0.24,510.029,273.174,4.11401,31.2923,76.5373,-6377.89,-179.167
0.26,509.362,273.163,4.78076,33.3373,102.253,1285.76,-178.883
0.28,508.647,273.147,5.4964,35.7822,122.242,999.485,-178.518
0.3,507.892,273.124,6.25203,37.7813,99.9554,-1114.34,-178.072
0.32,507.102,273.095,7.04241,39.5191,86.8926,-653.141,-177.54
0.34,506.279,273.055,7.8666,41.2092,84.5046,-119.402,-176.906
0.36,505.427,273.004,8.71998,42.669,72.9894,-575.756,-176.163
0.38,504.546,272.938,9.60365,44.1839,75.7461,137.834,-175.306
0.4,503.638,272.856,10.5149,45.5611,68.8571,-344.451,-174.33
0.42,502.728,272.757,11.4298,45.7483,9.36401,-2974.65,-173.241
0.44,501.838,272.643,12.3272,44.8683,-43.9997,-2668.19,-172.082
0.46,500.969,272.514,13.2059,43.9349,-46.6702,-133.523,-170.858
0.48,500.117,272.367,14.0705,43.2289,-35.3003,568.494,-169.575
0.5,499.284,272.203,14.9191,42.4325,-39.8197,-225.967,-168.235
0.52,498.468,272.024,15.755,41.7954,-31.8576,398.104,-166.844
0.54,497.666,271.825,16.5815,41.3246,-23.5386,415.947,-165.417
0.56,496.875,271.609,17.401,40.9718,-17.6419,294.838,-163.961
0.58,496.097,271.375,18.214,40.6518,-15.9973,82.2279,-162.483
0.6,495.329,271.121,19.0229,40.4432,-10.4334,278.195,-160.991
0.62,494.569,270.848,19.83,40.3547,-4.4227,300.536,-159.491
0.64,493.816,270.555,20.6384,40.4207,3.29709,385.989,-157.993
0.66,493.07,270.242,21.4477,40.4659,2.26255,-51.7271,-156.503
0.68,492.328,269.908,22.2611,40.6699,10.2002,396.884,-155.028
0.7,491.588,269.552,23.0816,41.0259,17.7982,379.896,-153.575
0.72,490.853,269.175,23.9076,41.2993,13.6712,-206.346,-152.15
0.74,490.12,268.776,24.7428,41.7612,23.0952,471.199,-150.756
0.76,489.389,268.354,25.587,42.2064,22.2606,-41.7293,-149.396
0.78,488.658,267.911,26.4417,42.7384,26.5988,216.91,-148.076
0.8,487.929,267.445,27.3072,43.2727,26.7167,5.89404,-146.799
0.82,487.199,266.956,28.1858,43.9307,32.8977,309.048,-145.571
0.84,486.47,266.446,29.0751,44.4679,26.8626,-301.756,-144.385
0.86,485.743,265.913,29.9761,45.0454,28.8715,100.444,-143.243
0.88,485.017,265.359,30.8897,45.6819,31.826,147.727,-142.149
0.9,484.29,264.784,31.8166,46.3448,33.1461,66.0056,-141.105
0.92,483.564,264.187,32.7562,46.9826,31.8905,-62.7789,-140.113
0.94,482.839,263.57,33.7086,47.6169,31.7154,-8.75735,-139.163
0.96,482.116,262.935,34.6713,48.1342,25.865,-292.519,-138.258
0.98,481.393,262.28,35.6465,48.7606,31.3201,272.755,-137.402
1,480.67,261.606,36.6346,49.4053,32.2336,45.6759,-136.59
1.02,479.949,260.914,37.6343,49.9839,28.9317,-165.096,-135.824
1.04,479.229,260.206,38.6435,50.4614,23.8757,-252.799,-135.098
1.06,478.51,259.48,39.6659,51.1198,32.9186,452.144,-134.417
1.08,477.792,258.738,40.6984,51.6281,25.4125,-375.305,-133.777
1.1,477.076,257.982,41.7398,52.0653,21.8623,-177.512,-133.172
1.12,476.359,257.211,42.7924,52.6331,28.3886,326.318,-132.609
1.14,475.642,256.425,43.8564,53.1987,28.2799,-5.43748,-132.09
1.16,474.927,255.625,44.9288,53.6224,21.1846,-354.763,-131.604
1.18,474.213,254.814,46.0098,54.0463,21.195,0.51766,-131.151
1.2,473.497,253.99,47.1017,54.5966,27.5168,316.092,-130.735
1.22,472.781,253.152,48.2038,55.1074,25.5374,-98.9695,-130.361
1.24,472.065,252.304,49.314,55.5094,20.1029,-271.725,-130.018
1.26,471.348,251.445,50.4327,55.9338,21.2202,55.8637,-129.708
1.28,470.629,250.575,51.561,56.4123,23.9236,135.171,-129.435
1.3,469.909,249.695,52.6984,56.8718,22.9734,-47.5096,-129.195
1.32,469.186,248.805,53.8444,57.2995,21.3873,-79.304,-128.989
1.34,468.461,247.906,54.9996,57.7615,23.0983,85.5485,-128.819
1.36,467.732,246.997,56.1648,58.2611,24.979,94.0337,-128.686
1.38,466.999,246.081,57.338,58.6565,19.7698,-260.46,-128.585
1.4,466.262,245.156,58.5207,59.1354,23.9473,208.877,-128.517
1.42,465.519,244.222,59.7145,59.6933,27.8954,197.404,-128.494
1.44,464.769,243.279,60.9186,60.2038,25.5254,-118.498,-128.51
1.46,464.013,242.33,62.1325,60.6931,24.4645,-53.0481,-128.561
1.48,463.251,241.374,63.3555,61.1514,22.9159,-77.4283,-128.65
1.5,462.477,240.41,64.5914,61.7953,32.1962,464.014,-128.787
1.52,461.694,239.437,65.8397,62.4163,31.0483,-57.3935,-128.975
1.54,460.911,238.473,67.0826,62.1423,-13.6987,-2237.35,-129.204
1.56,460.147,237.539,68.289,60.3195,-91.141,-3872.11,-129.469
1.58,459.41,236.649,69.4444,57.7726,-127.345,-1810.2,-129.767
1.6,458.701,235.803,70.5478,55.1694,-130.162,-140.874,-130.096
1.62,458.024,235.003,71.5962,52.4178,-137.579,-370.851,-130.447
1.64,457.378,234.25,72.5882,49.6024,-140.77,-159.518,-130.815
1.66,456.764,233.543,73.5243,46.8056,-139.837,46.6143,-131.193
1.68,456.18,232.88,74.4085,44.2078,-129.893,497.221,-131.577
1.7,455.638,232.272,75.2225,40.6994,-175.417,-2276.2,-131.962
1.72,455.136,231.719,75.9692,37.3372,-168.111,365.318,-132.34
1.74,454.659,231.197,76.6767,35.3754,-98.0937,3500.85,-132.712
1.76,454.245,230.752,77.2845,30.3915,-249.193,-7554.97,-133.058
1.78,453.848,230.329,77.8649,29.0178,-68.6835,9025.48,-133.394
1.8,453.535,230.001,78.3179,22.6513,-318.325,-12482.1,-133.679
1.82,453.222,229.673,78.7716,22.6858,1.7259,16002.6,-133.964
1.84,452.939,229.381,79.1779,20.3134,-118.62,-6017.29,-134.23
1.86,452.683,229.12,79.5435,18.2769,-101.827,839.646,-134.481
1.88,452.426,228.859,79.9094,18.2989,1.09885,5146.29,-134.731
1.9,452.168,228.599,80.276,18.3288,1.494,19.7571,-134.986
1.92,451.904,228.337,80.6486,18.6298,15.0533,677.965,-135.264
1.94,451.639,228.075,81.0209,18.6167,-0.654415,-785.386,-135.541
1.96,451.372,227.814,81.394,18.653,1.81181,123.311,-135.818
1.98,451.1,227.551,81.7727,18.9367,14.1862,618.722,-136.122
2,450.825,227.287,82.1537,19.048,5.565,-431.062,-136.429
2.02,450.548,227.026,82.534,19.0153,-1.63602,-360.051,-136.736
2.04,450.267,226.763,82.9193,19.2662,12.5438,708.991,-137.062
2.06,449.982,226.498,83.3086,19.465,9.9423,-130.075,-137.403
2.08,449.695,226.236,83.6973,19.4341,-1.54716,-574.473,-137.744
2.1,449.403,225.972,84.0901,19.6389,10.2429,589.504,-138.095
2.12,449.102,225.705,84.4929,20.1388,24.996,737.653,-138.489
2.14,448.8,225.437,84.8964,20.1762,1.87014,-1156.29,-138.883
2.16,448.496,225.174,85.2984,20.102,-3.71432,-279.223,-139.276
2.18,448.187,224.91,85.705,20.3284,11.3201,751.72,-139.683
2.2,447.876,224.647,86.1127,20.3853,2.84699,-423.654,-140.091
2.22,447.563,224.387,86.5194,20.3341,-2.56014,-270.357,-140.5
2.24,447.241,224.123,86.9363,20.8449,25.5386,1404.94,-140.947
2.26,446.908,223.856,87.3624,21.3046,22.9861,-127.629,-141.428
2.28,446.575,223.591,87.7886,21.3124,0.390299,-1129.79,-141.909
2.3,446.237,223.329,88.2156,21.3507,1.9153,76.25,-142.394
2.32,445.896,223.067,88.6459,21.5125,8.09138,308.804,-142.893
2.34,445.551,222.809,89.0765,21.5319,0.967368,-356.201,-143.392
2.36,445.205,222.554,89.5068,21.5123,-0.980086,-97.3727,-143.891
2.38,444.838,222.288,89.96,22.6597,57.3701,2917.51,-144.476
2.4,444.465,222.024,90.417,22.8528,9.65673,-2385.67,-145.074
2.42,444.089,221.765,90.8734,22.8202,-1.63172,-564.422,-145.672
2.44,443.708,221.506,91.3335,23.0033,9.15623,539.398,-146.283
2.46,443.322,221.251,91.7961,23.1321,6.43884,-135.87,-146.906
2.48,442.933,221,92.2591,23.148,0.79583,-282.151,-147.528
2.5,442.537,220.75,92.7279,23.4396,14.5782,689.118,-148.172
2.52,442.119,220.494,93.218,24.5056,53.3007,1936.13,-148.897
2.54,441.699,220.245,93.7066,24.4318,-3.68656,-2849.36,-149.621
2.56,441.274,219.999,94.1971,24.5235,4.58448,413.552,-150.346
2.58,440.835,219.752,94.7004,25.1657,32.1094,1376.25,-151.121
2.6,440.393,219.511,95.2047,25.2152,2.47546,-1481.7,-151.902
2.62,439.946,219.276,95.7091,25.2217,0.322094,-107.669,-152.684
2.64,439.487,219.042,96.2249,25.7865,28.2419,1395.99,-153.506
2.66,439.016,218.812,96.7484,26.1739,19.3691,-443.639,-154.361
2.68,438.543,218.589,97.2719,26.1772,0.166847,-960.113,-155.216
2.7,438.061,218.37,97.8013,26.4719,14.732,728.26,-156.093
2.72,437.555,218.15,98.353,27.5814,55.4754,2037.17,-157.054
2.74,437.045,217.939,98.9045,27.5755,-0.295047,-2788.52,-158.015
2.76,436.532,217.737,99.456,27.5744,-0.0538505,12.0598,-158.976
2.78,436.004,217.538,100.02,28.2109,31.8254,1593.96,-159.984
2.8,435.471,217.349,100.586,28.2805,3.47824,-1417.36,-160.998
2.82,434.935,217.169,101.151,28.2754,-0.25145,-186.484,-162.013
2.84,434.383,216.995,101.73,28.945,33.4799,1686.57,-163.079
2.86,433.816,216.829,102.321,29.5437,29.9336,-177.314,-164.189
2.88,433.246,216.673,102.912,29.5229,-1.04142,-1548.75,-165.3
2.9,432.67,216.527,103.506,29.7259,10.1534,559.74,-166.424
2.92,432.078,216.39,104.113,30.3711,32.2572,1105.19,-167.599
2.94,431.483,216.265,104.722,30.4037,1.63289,-1531.21,-168.774
2.96,430.886,216.153,105.329,30.3846,-0.957283,-129.509,-169.949
2.98,430.277,216.051,105.946,30.8482,23.1802,1206.88,-171.159
3,429.667,215.963,106.563,30.8594,0.557762,-1131.12,-172.374
3.02,429.053,215.887,107.181,30.9053,2.29837,87.0305,-173.588
3.04,428.432,215.824,107.806,31.2301,16.2397,697.064,-174.826
3.06,427.804,215.774,108.435,31.4649,11.7404,-224.965,-176.084
3.08,427.177,215.738,109.064,31.4279,-1.85135,-679.585,-177.341
3.1,426.548,215.715,109.693,31.4769,2.45101,215.118,-178.599
3.12,425.919,215.707,110.322,31.442,-1.74596,-209.849,-179.855
3.14,425.29,215.713,110.951,31.4545,0.624821,118.539,178.888
3.16,424.661,215.732,111.58,31.4474,-0.354084,-48.9453,177.632
3.18,424.036,215.764,112.206,31.2917,-7.78834,-371.713,176.385
3.2,423.411,215.811,112.833,31.3407,2.45154,511.994,175.14
3.22,422.789,215.871,113.458,31.2671,-3.68063,-306.608,173.895
3.24,422.173,215.943,114.078,30.985,-14.1053,-521.233,172.674
3.26,421.565,216.028,114.692,30.7116,-13.6688,21.825,171.473
3.28,420.958,216.126,115.307,30.7272,0.779385,722.408,170.271
3.3,420.357,216.235,115.917,30.5326,-9.72916,-525.427,169.084
3.32,419.772,216.355,116.515,29.8599,-33.6363,-1195.36,167.949
3.34,419.19,216.485,117.112,29.8608,0.0490467,1684.27,166.815
3.36,418.61,216.628,117.709,29.8325,-1.41726,-73.3152,165.681
3.38,418.044,216.778,118.294,29.2964,-26.8029,-1269.28,164.589
3.4,417.482,216.94,118.879,29.2146,-4.09015,1135.64,163.502
3.42,416.923,217.111,119.463,29.2249,0.513201,230.168,162.416
3.44,416.382,217.289,120.033,28.4745,-37.5227,-1901.79,161.387
3.46,415.856,217.472,120.59,27.8791,-29.7665,387.811,160.406
3.48,415.334,217.663,121.146,27.7921,-4.34946,1270.85,159.426
3.5,414.818,217.862,121.699,27.6501,-7.10217,-137.635,158.46
3.52,414.319,218.064,122.237,26.89,-38.0062,-1545.2,157.552
3.54,413.824,218.273,122.774,26.8743,-0.782956,1861.16,156.644
3.56,413.333,218.491,123.312,26.8822,0.394431,58.8694,155.736
3.58,412.857,218.711,123.837,26.2255,-32.8336,-1661.4,154.881
3.6,412.386,218.935,124.358,26.0488,-8.83605,1199.88,154.034
3.62,411.919,219.168,124.88,26.1135,3.23422,603.514,153.187
3.64,411.47,219.399,125.385,25.2359,-43.879,-2355.66,152.402
3.66,411.036,219.63,125.876,24.5906,-32.2644,580.733,151.67
3.68,410.604,219.867,126.369,24.611,1.01964,1664.2,150.937
3.7,410.178,220.108,126.859,24.5053,-5.28455,-315.209,150.211
3.72,409.761,220.351,127.342,24.14,-18.2668,-649.114,149.512
3.74,409.345,220.599,127.825,24.1862,2.31254,1028.97,148.812
3.76,408.934,220.852,128.308,24.1357,-2.52562,-241.908,148.112
3.78,408.545,221.097,128.768,22.9945,-57.0609,-2726.76,147.502
3.8,408.162,221.345,129.224,22.8208,-8.68781,2418.65,146.905
3.82,407.781,221.596,129.68,22.7917,-1.45047,361.867,146.308
3.84,407.406,221.848,130.132,22.5978,-9.69718,-412.336,145.729
3.86,407.038,222.103,130.58,22.3904,-10.3686,-33.5688,145.166
3.88,406.673,222.36,131.027,22.3527,-1.88683,424.086,144.604
3.9,406.313,222.619,131.47,22.1592,-9.67608,-389.463,144.055
3.92,405.967,222.873,131.899,21.4609,-34.9143,-1261.91,143.563
3.94,405.623,223.129,132.328,21.4373,-1.17845,1686.79,143.072
3.96,405.282,223.389,132.756,21.4209,-0.822577,17.7937,142.58
3.98,404.949,223.645,133.177,21.0063,-20.7299,-995.368,142.122
4,404.621,223.904,133.595,20.9148,-4.57449,807.773,141.669
4.02,404.293,224.165,134.014,20.9459,1.55616,306.533,141.216
4.04,403.974,224.424,134.425,20.5641,-19.0921,-1032.41,140.791
4.06,403.661,224.682,134.83,20.249,-15.7545,166.879,140.389
4.08,403.35,224.941,135.235,20.2678,0.941768,834.813,139.988
4.1,403.042,225.202,135.639,20.19,-3.88854,-241.516,139.592
4.12,402.74,225.461,136.036,19.8584,-16.5803,-634.589,139.218
4.14,402.44,225.722,136.434,19.8991,2.03562,930.797,138.843
4.16,402.141,225.986,136.833,19.952,2.64069,30.2538,138.469
4.18,401.853,226.243,137.219,19.303,-32.4468,-1754.37,138.136
4.2,401.566,226.501,137.605,19.2912,-0.588564,1592.91,137.809
4.22,401.281,226.761,137.991,19.2877,-0.174971,20.6796,137.482
4.24,401.001,227.02,138.372,19.0461,-12.0814,-595.323,137.173
4.26,400.725,227.276,138.749,18.8367,-10.4717,80.4873,136.88
4.28,400.451,227.535,139.126,18.8451,0.421277,544.648,136.586
4.3,400.18,227.794,139.501,18.7516,-4.67307,-254.717,136.299
4.32,399.913,228.049,139.87,18.472,-13.98,-465.347,136.036
4.34,399.648,228.306,140.239,18.4479,-1.20681,638.66,135.772
4.36,399.385,228.564,140.607,18.399,-2.44491,-61.9052,135.509
4.38,399.126,228.819,140.97,18.1549,-12.2059,-488.049,135.27
4.4,398.87,229.074,141.332,18.1153,-1.98013,511.288,135.034
4.42,398.615,229.33,141.693,18.0446,-3.53557,-77.772,134.798
4.44,398.363,229.585,142.052,17.9193,-6.2654,-136.492,134.577
4.46,398.115,229.838,142.407,17.7533,-8.29795,-101.627,134.366
4.48,397.866,230.093,142.762,17.7759,1.13184,471.489,134.156
4.5,397.621,230.346,143.115,17.6408,-6.75756,-394.47,133.951
4.52,397.379,230.598,143.464,17.4641,-8.83394,-103.819,133.765
4.54,397.138,230.851,143.813,17.4427,-1.0732,388.037,133.578
4.56,396.898,231.103,144.162,17.4296,-0.654918,20.9142,133.392
4.58,396.663,231.354,144.506,17.1848,-12.2356,-579.032,133.225
4.6,396.429,231.604,144.848,17.1456,-1.96293,513.632,133.061
4.62,396.194,231.855,145.191,17.1456,-0.000224438,98.1353,132.897
4.64,395.963,232.104,145.531,16.9779,-8.38324,-419.151,132.746
4.66,395.735,232.352,145.868,16.8498,-6.40348,98.988,132.605
4.68,395.508,232.6,146.205,16.8368,-0.654371,287.455,132.465
4.7,395.281,232.848,146.541,16.8007,-1.80532,-57.5476,132.328
4.72,395.058,233.094,146.872,16.5781,-11.1264,-466.052,132.208
4.74,394.836,233.339,147.203,16.5576,-1.02572,505.032,132.087
4.76,394.614,233.585,147.535,16.5816,1.20062,111.317,131.967
4.78,394.396,233.829,147.862,16.3388,-12.1435,-667.205,131.863
4.8,394.178,234.072,148.189,16.3367,-0.10052,602.147,131.762
4.82,393.961,234.316,148.515,16.3367,3.17831e-06,5.02614,131.661
4.84,393.746,234.558,148.839,16.1726,-8.20768,-410.384,131.57
4.86,393.532,234.799,149.161,16.1053,-3.36518,242.125,131.487
4.88,393.32,235.04,149.482,16.0591,-2.30848,52.8351,131.405
4.9,393.108,235.281,149.803,16.0398,-0.964118,67.2179,131.327
4.92,392.9,235.518,150.119,15.7905,-12.466,-575.096,131.263
4.94,392.691,235.757,150.436,15.848,2.87336,766.97,131.2
4.96,392.482,235.995,150.753,15.8611,0.654481,-110.944,131.136
4.98,392.26,236.249,151.09,16.8361,48.7513,2404.84,130.995
5,392.037,236.505,151.429,16.9932,7.85363,-2044.88,130.842
5.02,391.815,236.763,151.769,16.9851,-0.404061,-412.885,130.69
5.04,391.573,237.045,152.141,18.6005,80.7699,4058.7,130.415
5.06,391.315,237.35,152.54,19.9675,68.3508,-620.956,130.036
5.08,391.06,237.656,152.94,19.9545,-0.650195,-3450.05,129.656
5.1,390.808,237.962,153.336,19.8163,-6.90919,-312.95,129.29
5.12,390.566,238.26,153.719,19.1503,-33.2985,-1319.47,128.973
5.14,390.326,238.558,154.102,19.1578,0.375029,1683.68,128.656
5.16,390.089,238.858,154.485,19.1346,-1.16318,-76.9106,128.339
5.18,389.856,239.153,154.86,18.768,-18.3271,-858.195,128.053
5.2,389.627,239.449,155.234,18.7065,-3.07513,762.598,127.77
5.22,389.399,239.744,155.607,18.6628,-2.18489,44.5122,127.488
5.24,389.175,240.038,155.977,18.4892,-8.68,-324.755,127.223
5.26,388.954,240.329,156.342,18.2496,-11.9839,-165.193,126.974
5.28,388.736,240.621,156.707,18.2294,-1.00583,548.901,126.725
5.3,388.52,240.913,157.07,18.1648,-3.23013,-111.215,126.484
5.32,388.309,241.199,157.425,17.7434,-21.074,-892.193,126.276
5.34,388.1,241.485,157.779,17.7007,-2.13305,947.046,126.069
5.36,387.893,241.771,158.133,17.7117,0.550082,134.157,125.862
5.38,387.69,242.053,158.481,17.3683,-17.1716,-886.085,125.679
5.4,387.487,242.335,158.828,17.3565,-0.587944,829.184,125.5
5.42,387.286,242.619,159.175,17.3682,0.582628,58.5286,125.321
5.44,387.089,242.899,159.518,17.1272,-12.0474,-631.503,125.156
5.46,386.893,243.178,159.859,17.0529,-3.71627,416.558,125.002
5.48,386.699,243.457,160.199,16.9956,-2.86524,42.5513,124.848
5.5,386.506,243.735,160.537,16.9301,-3.2723,-20.353,124.699
5.52,386.315,244.01,160.871,16.7094,-11.0359,-388.178,124.57
5.54,386.127,244.285,161.206,16.7091,-0.0140176,551.092,124.442
5.56,385.938,244.56,161.539,16.6527,-2.8207,-140.334,124.313
5.58,385.754,244.831,161.866,16.3537,-14.9524,-606.583,124.21
5.6,385.572,245.1,162.191,16.2601,-4.67748,513.744,124.112
5.62,385.389,245.37,162.517,16.3146,2.7256,370.154,124.013
5.64,385.209,245.637,162.839,16.1052,-10.472,-659.878,123.93
5.66,385.032,245.902,163.158,15.9202,-9.24937,61.1291,123.859
5.68,384.854,246.166,163.476,15.9202,9.3929e-06,462.469,123.788
5.7,384.678,246.43,163.794,15.8832,-1.84943,-92.4718,123.723
5.72,384.505,246.689,164.105,15.5521,-16.5572,-735.387,123.678
5.74,384.333,246.949,164.417,15.5937,2.08139,931.927,123.633
5.76,384.16,247.209,164.729,15.5937,1.89731e-05,-104.068,123.588
5.78,383.991,247.464,165.034,15.2926,-15.0535,-752.674,123.566
5.8,383.823,247.717,165.339,15.2403,-2.618,621.773,123.548
5.82,383.655,247.972,165.644,15.2258,-0.725531,94.6232,123.529
5.84,383.488,248.222,165.945,15.0439,-9.09195,-418.321,123.526
5.86,383.325,248.471,166.243,14.901,-7.14616,97.2892,123.535
5.88,383.16,248.719,166.54,14.8738,-1.36232,289.192,123.545
5.9,382.996,248.966,166.836,14.8083,-3.27249,-95.5088,123.56
5.92,382.836,249.208,167.127,14.5203,-14.399,-556.324,123.597
5.94,382.675,249.45,167.417,14.5203,3.62112e-06,719.949,123.634
5.96,382.514,249.691,167.707,14.4787,-2.08141,-104.07,123.671
5.98,382.357,249.928,167.991,14.2193,-12.972,-544.528,123.731
6,382.2,250.163,168.274,14.1531,-3.3098,483.109,123.795
6.02,382.042,250.399,168.558,14.1946,2.07756,269.368,123.859
6.04,381.886,250.631,168.838,13.996,-9.93157,-600.456,123.935
6.06,381.731,250.861,169.116,13.8799,-5.8041,206.373,124.022
6.08,381.576,251.09,169.392,13.8254,-2.72559,153.926,124.11
6.1,381.421,251.319,169.668,13.7861,-1.9635,38.1045,124.201
6.12,381.268,251.544,169.94,13.6179,-8.41251,-322.451,124.307
6.14,381.114,251.769,170.212,13.6179,8.50685e-05,420.63,124.413
6.16,380.96,251.993,170.485,13.6049,-0.650076,-32.508,124.519
6.18,380.807,252.215,170.754,13.4609,-7.19952,-327.472,124.636
6.2,380.654,252.436,171.023,13.4762,0.765689,398.26,124.754
6.22,380.501,252.657,171.292,13.4351,-2.05413,-140.991,124.872
6.24,380.346,252.878,171.562,13.4768,2.08424,206.919,124.989
6.26,380.192,253.099,171.831,13.4768,8.58762e-05,-104.208,125.106
6.28,380.036,253.319,172.101,13.4777,0.0462089,2.30615,125.222
6.3,379.881,253.539,172.37,13.4777,-1.4249e-05,-2.31116,125.338
6.32,379.724,253.76,172.641,13.559,4.06277,203.139,125.45
6.34,379.567,253.98,172.912,13.5313,-1.38236,-272.257,125.561
