"time","x","y","position","velocity","acceleration","jerk","heading"
0,360.496,265.741,0,0,0,0,-53.8
0.02,360.598,265.601,0.173217,8.66083,433.042,21652.1,-53.8
0.04,360.701,265.461,0.347024,8.69037,1.47684,-21578.2,-53.8
0.06,360.803,265.322,0.519433,8.62047,-3.49492,-248.588,-53.8
0.08,360.905,265.182,0.69265,8.66083,2.01808,275.65,-53.8
0.1,361.007,265.042,0.865867,8.66083,-8.37552e-11,-100.904,-53.8
0.12,361.143,264.858,1.09467,11.4403,138.972,6948.62,-53.8
0.14,361.39,264.52,1.5133,20.9316,474.567,16779.7,-53.8
0.16,361.636,264.183,1.93057,20.8631,-3.42793,-23899.7,-53.7999
0.18,361.946,263.76,2.45502,26.2229,267.993,13571,-53.7998
0.2,362.268,263.32,3.00029,27.2632,52.0137,-10799,-53.7997
0.22,362.65,262.798,3.64721,32.3462,254.149,10106.7,-53.7994
0.24,363.055,262.245,4.33279,34.2788,96.6302,-7875.92,-53.7989
0.26,363.492,261.647,5.0736,37.0407,138.097,2073.36,-53.7983
0.28,363.972,260.991,5.88589,40.6143,178.678,2029.04,-53.7974
0.3,364.487,260.287,6.75857,43.634,150.988,-1384.49,-53.7958
0.32,365.037,259.537,7.68855,46.4993,143.264,-386.24,-53.7938
0.34,365.622,258.738,8.67875,49.5096,150.514,362.521,-53.791
0.36,366.242,257.89,9.72887,52.5064,149.839,-33.7336,-53.787
0.38,366.897,256.995,10.8385,55.4802,148.692,-57.3705,-53.7819
0.4,367.587,256.053,12.0065,58.3989,145.935,-137.834,-53.7754
0.42,368.318,255.056,13.2423,61.793,169.702,1188.35,-53.7663
0.44,369.083,254.012,14.5359,64.6805,144.377,-1266.27,-53.7551
0.46,369.882,252.922,15.8875,67.5798,144.966,29.4575,-53.7409
0.48,370.72,251.782,17.3029,70.7679,159.403,721.837,-53.723
0.5,371.593,250.592,18.7788,73.7957,151.392,-400.51,-53.7007
0.52,372.503,249.353,20.3161,76.8637,153.396,100.173,-53.6732
0.54,373.449,248.066,21.9136,79.8761,150.621,-138.729,-53.6394
0.56,374.436,246.728,23.5756,83.1007,161.232,530.533,-53.5983
0.58,375.459,245.343,25.2978,86.1096,150.444,-539.418,-53.5481
0.6,376.519,243.908,27.0816,89.191,154.072,181.415,-53.4886
0.62,377.62,242.422,28.9317,92.5023,165.566,574.681,-53.4152
0.64,378.762,240.887,30.8448,95.6557,157.668,-394.86,-53.3285
0.66,379.944,239.302,32.8221,98.8643,160.43,138.059,-53.2243
0.68,381.169,237.667,34.8645,102.12,162.79,118.012,-53.1013
0.7,382.437,235.982,36.973,105.429,165.453,133.15,-52.9547
0.72,383.749,234.249,39.1469,108.694,163.262,-109.545,-52.7818
0.74,385.108,232.465,41.3902,112.162,173.387,506.234,-52.5779
0.76,386.519,230.63,43.7047,115.728,178.283,244.822,-52.3365
0.78,387.98,228.746,46.0884,119.182,172.691,-279.591,-52.0549
0.8,389.494,226.814,48.5433,122.744,178.138,272.335,-51.7243
0.82,391.049,224.857,51.043,124.985,112.05,-3304.41,-51.3432
0.84,392.627,222.9,53.5564,125.674,34.4259,-3881.19,-50.9107
0.86,394.228,220.946,56.0833,126.344,33.5079,-45.8994,-50.4246
0.88,395.858,218.993,58.6267,127.17,41.3091,390.059,-49.8785
0.9,397.517,217.045,61.1855,127.937,38.3469,-148.109,-49.2714
0.92,399.209,215.102,63.7617,128.811,43.6841,266.859,-48.5982
0.94,400.937,213.167,66.3558,129.708,44.8426,57.9246,-47.8573
0.96,402.702,211.243,68.967,130.559,42.5826,-112.999,-47.048
0.98,404.509,209.331,71.5974,131.517,47.8966,265.7,-46.1715
1,406.357,207.437,74.2436,132.31,39.6191,-413.873,-45.2315
1.02,408.249,205.563,76.9068,133.164,42.7372,155.904,-44.2256
1.04,410.184,203.714,79.5839,133.852,34.3969,-417.015,-43.1667
1.06,412.163,201.892,82.2733,134.47,30.8601,-176.842,-42.0608
1.08,414.184,200.104,84.9719,134.932,23.1359,-386.206,-40.9179
1.1,416.247,198.353,87.6778,135.294,18.0672,-253.439,-39.7501
1.12,418.348,196.642,90.3874,135.482,9.41821,-432.448,-38.5686
1.14,420.483,194.975,93.0961,135.433,-2.43221,-592.521,-37.3875
1.16,422.65,193.354,95.8023,135.309,-6.22027,-189.403,-36.2195
1.18,424.843,191.781,98.501,134.935,-18.7167,-624.819,-35.0761
1.2,427.06,190.257,101.192,134.546,-19.4229,-35.3145,-33.9665
1.22,429.296,188.781,103.87,133.918,-31.4162,-599.665,-32.903
1.24,431.546,187.353,106.535,133.241,-33.8177,-120.073,-31.8902
1.26,433.808,185.972,109.186,132.539,-35.1237,-65.2994,-30.933
1.28,436.079,184.635,111.821,131.763,-38.8099,-184.312,-30.0345
1.3,438.357,183.342,114.44,130.953,-40.5004,-84.5223,-29.1976
1.32,440.637,182.087,117.043,130.151,-40.0772,21.1599,-28.4231
1.34,442.921,180.87,119.631,129.381,-38.5174,77.9907,-27.7069
1.36,445.204,179.688,122.202,128.56,-41.0523,-126.747,-27.0512
1.38,447.485,178.538,124.756,127.691,-43.4537,-120.07,-26.4508
1.4,449.726,177.437,127.253,124.855,-141.81,-4917.81,-25.9135
1.42,451.906,176.389,129.672,120.972,-194.124,-2615.71,-25.4362
1.44,454.027,175.39,132.017,117.215,-187.87,312.729,-25.0149
1.46,456.09,174.436,134.29,113.656,-177.95,495.981,-24.6398
1.48,458.094,173.524,136.491,110.079,-178.843,-44.64,-24.3089
1.5,460.04,172.651,138.624,106.632,-172.333,325.467,-24.0157
1.52,461.926,171.816,140.687,103.134,-174.905,-128.573,-23.757
1.54,463.753,171.016,142.681,99.7065,-171.377,176.403,-23.5291
1.56,465.521,170.25,144.608,96.3622,-167.215,208.082,-23.3273
1.58,467.231,169.516,146.469,93.0261,-166.807,20.4008,-23.1506
1.6,468.885,168.812,148.266,89.8705,-157.779,451.419,-22.9938
1.62,470.479,168.138,149.997,86.5738,-164.837,-352.914,-22.8572
1.64,472.013,167.493,151.662,83.2085,-168.264,-171.336,-22.737
1.66,473.494,166.874,153.266,80.222,-149.327,946.847,-22.6319
1.68,474.913,166.284,154.803,76.8517,-168.514,-959.35,-22.5401
1.7,476.278,165.718,156.281,73.8985,-147.657,1042.86,-22.4603
1.72,477.582,165.18,157.691,70.5165,-169.103,-1072.33,-22.3912
1.74,478.833,164.666,159.043,67.5989,-145.877,1161.34,-22.3314
1.76,480.025,164.177,160.332,64.447,-157.599,-586.127,-22.2797
1.78,481.158,163.713,161.556,61.1888,-162.91,-265.538,-22.2357
1.8,482.235,163.273,162.72,58.1817,-150.355,627.736,-22.1987
1.82,483.255,162.857,163.822,55.1166,-153.251,-144.805,-22.1667
1.84,484.22,162.464,164.863,52.064,-152.632,30.9611,-22.1402
1.86,485.128,162.095,165.844,49.0245,-151.977,32.7636,-22.1182
1.88,485.979,161.75,166.762,45.8853,-156.96,-249.152,-22.0998
1.9,486.774,161.427,167.62,42.9441,-147.059,495.061,-22.0848
1.92,487.518,161.125,168.423,40.127,-140.853,310.287,-22.0729
1.94,488.201,160.848,169.159,36.8208,-165.31,-1222.86,-22.0632
1.96,488.817,160.599,169.825,33.269,-177.591,-614.072,-22.056
1.98,489.395,160.365,170.448,31.1456,-106.17,3571.05,-22.05
2,489.901,160.16,170.994,27.3009,-192.236,-4303.27,-22.0462
2.02,490.357,159.974,171.487,24.6468,-132.704,2976.61,-22.043
2.04,490.746,159.817,171.906,20.9555,-184.565,-2593.06,-22.0409
2.06,491.128,159.663,172.318,20.6212,-16.7172,8392.38,-22.0388
2.08,491.29,159.598,172.492,8.68523,-596.797,-29004,-22.0385
2.1,491.45,159.533,172.665,8.64019,-2.25174,29727.3,-22.0381
2.12,491.611,159.468,172.838,8.68523,2.25174,225.174,-22.0378
2.14,491.771,159.403,173.011,8.64019,-2.25174,-225.174,-22.0374
2.16,491.932,159.338,173.185,8.68523,2.25174,225.174,-22.0371
