"time","x","y","position","velocity","acceleration","jerk","heading"
0,514.143,273.193,0,0,0,0,-180
0.02,513.973,273.193,0.170382,8.5191,425.955,21297.8,-179.99
0.04,513.802,273.193,0.341026,8.53219,0.654499,-21265,-179.981
0.06,513.632,273.193,0.511408,8.5191,-0.654498,-65.4498,-179.971
0.08,513.46,273.193,0.68279,8.5691,2.5,157.725,-179.961
0.1,513.29,273.193,0.853172,8.5191,-2.5,-250,-179.951
0.12,513.068,273.193,1.07541,11.112,129.646,6607.3,-179.929
0.14,512.666,273.192,1.47687,20.073,448.051,15920.2,-179.862
0.16,512.266,273.191,1.87733,20.023,-2.49999,-22527.5,-179.795
0.18,511.775,273.189,2.36757,24.5116,224.428,11346.4,-179.666
0.2,511.267,273.186,2.87567,25.405,44.6731,-8987.73,-179.525
0.22,510.681,273.179,3.46201,29.3174,195.617,7547.18,-179.297
0.24,510.067,273.171,4.0766,30.7294,70.6006,-6250.81,-179.024
0.26,509.413,273.158,4.72979,32.6594,96.4984,1294.89,-178.688
0.28,508.716,273.14,5.42796,34.9087,112.469,798.512,-178.256
0.3,507.982,273.114,6.16229,36.7161,90.3662,-1105.12,-177.728
0.32,507.217,273.08,6.92778,38.2748,77.9348,-621.57,-177.1
0.34,506.423,273.035,7.72311,39.7666,74.592,-167.14,-176.358
0.36,505.602,272.977,8.54553,41.1211,67.7245,-343.373,-175.494
0.38,504.758,272.903,9.39278,42.3621,62.0515,-283.65,-174.497
0.4,503.894,272.812,10.2619,43.4552,54.6531,-369.923,-173.361
0.42,503.033,272.703,11.1303,43.4186,-1.82768,-2824.04,-172.096
0.44,502.193,272.576,11.9793,42.4547,-48.1965,-2318.44,-170.754
0.46,501.376,272.433,12.8092,41.4907,-48.2004,-0.196938,-169.34
0.48,500.578,272.272,13.6229,40.6881,-40.1295,403.546,-167.866
0.5,499.798,272.094,14.423,40.0031,-34.2518,293.883,-166.338
0.52,499.036,271.897,15.2102,39.3629,-32.0105,112.069,-164.761
0.54,498.287,271.683,15.9891,38.9436,-20.9603,552.506,-163.154
0.56,497.55,271.448,16.7629,38.6897,-12.6959,413.22,-161.524
0.58,496.823,271.194,17.5323,38.4703,-10.9701,86.291,-159.882
0.6,496.104,270.919,18.3022,38.495,1.2353,610.27,-158.238
0.62,495.392,270.622,19.074,38.5894,4.71785,174.127,-156.602
0.64,494.684,270.304,19.8497,38.7851,9.78658,253.437,-154.983
0.66,493.98,269.963,20.6321,39.1207,16.7786,349.603,-153.388
0.68,493.277,269.599,21.4234,39.5631,22.1198,267.058,-151.825
0.7,492.577,269.212,22.2237,40.0135,22.5194,19.979,-150.298
0.72,491.876,268.799,23.037,40.6682,32.738,510.931,-148.823
0.74,491.175,268.363,23.8633,41.3146,32.3185,-20.9754,-147.395
0.76,490.473,267.902,24.7029,41.9816,33.3488,51.5159,-146.018
0.78,489.771,267.417,25.5558,42.6414,32.9929,-17.7961,-144.693
0.8,489.07,266.907,26.423,43.3602,35.9379,147.249,-143.422
0.82,488.366,266.373,27.3065,44.1785,40.913,248.755,-142.214
0.84,487.661,265.816,28.2052,44.9312,37.6343,-163.933,-141.062
0.86,486.957,265.234,29.1182,45.6518,36.035,-79.9689,-139.964
0.88,486.253,264.632,30.0445,46.3124,33.0256,-150.467,-138.921
0.9,485.549,264.007,30.9863,47.0939,39.0753,302.483,-137.935
0.92,484.842,263.358,31.9453,47.9478,42.699,181.187,-137.013
0.94,484.136,262.69,32.9179,48.6329,34.2503,-422.435,-136.143
0.96,483.431,262.003,33.9024,49.2209,29.4037,-242.332,-135.322
0.98,482.726,261.296,34.9005,49.9058,34.2445,242.04,-134.551
1,482.023,260.571,35.911,50.5274,31.0816,-158.146,-133.827
1.02,481.317,259.828,36.9353,51.2126,34.2577,158.808,-133.157
1.04,480.611,259.067,37.9736,51.9158,35.1585,45.0372,-132.539
1.06,479.905,258.289,39.0237,52.506,29.5114,-282.354,-131.964
1.08,479.2,257.497,40.0843,53.0282,26.1123,-169.957,-131.432
1.1,478.495,256.691,41.1555,53.5626,26.7185,30.3135,-130.941
1.12,477.787,255.869,42.24,54.2259,33.1655,322.347,-130.498
1.14,477.079,255.033,43.3359,54.7908,28.2444,-246.052,-130.101
1.16,476.369,254.184,44.4417,55.2933,25.1252,-155.963,-129.745
1.18,475.657,253.323,45.5591,55.8682,28.7438,180.931,-129.428
1.2,474.943,252.451,46.6866,56.3743,25.3077,-171.804,-129.15
1.22,474.227,251.566,47.825,56.9219,27.3771,103.471,-128.917
1.24,473.506,250.668,48.9765,57.5724,32.5262,257.456,-128.729
1.26,472.78,249.761,50.1384,58.0986,26.3112,-310.753,-128.583
1.28,472.05,248.844,51.3106,58.6068,25.4102,-45.0506,-128.477
1.3,471.314,247.917,52.4939,59.1647,27.891,124.043,-128.413
1.32,470.572,246.98,53.6891,59.7619,29.8625,98.5722,-128.397
1.34,469.821,246.034,54.8973,60.4082,32.3149,122.622,-128.428
1.36,469.061,245.077,56.1188,61.0758,33.3794,53.226,-128.51
1.38,468.292,244.112,57.3531,61.7143,31.9248,-72.7284,-128.642
1.4,467.511,243.138,58.6018,62.4365,36.11,209.258,-128.825
1.42,466.717,242.155,59.8655,63.1863,37.4908,69.0407,-129.07
1.44,465.907,241.163,61.1458,64.0129,41.3281,191.866,-129.375
1.46,465.082,240.164,62.4421,64.816,40.1586,-58.4745,-129.744
1.48,464.238,239.156,63.7567,65.7319,45.7927,281.702,-130.183
1.5,463.372,238.138,65.0929,66.8078,53.7969,400.212,-130.702
1.52,462.479,237.112,66.4532,68.0168,60.4495,332.63,-131.317
1.54,461.571,236.091,67.8191,68.2948,13.8999,-2327.48,-132.016
1.56,460.67,235.102,69.157,66.8939,-70.0442,-4197.21,-132.784
1.58,459.785,234.16,70.4497,64.6367,-112.861,-2140.85,-133.609
1.6,458.914,233.258,71.7038,62.7041,-96.6293,811.602,-134.512
1.62,458.068,232.411,72.9009,59.8522,-142.594,-2298.23,-135.43
1.64,457.243,231.611,74.0495,57.4319,-121.017,1078.86,-136.395
1.66,456.444,230.861,75.1461,54.8309,-130.051,-451.739,-137.387
1.68,455.675,230.165,76.1833,51.8576,-148.666,-930.72,-138.355
1.7,454.931,229.515,77.1712,49.3945,-123.153,1275.66,-139.408
1.72,454.237,228.93,78.0787,45.3781,-200.824,-3883.55,-140.397
1.74,453.569,228.385,78.9406,43.0918,-114.312,4325.58,-141.357
1.76,452.972,227.916,79.7004,37.9901,-255.088,-7038.81,-142.287
1.78,452.393,227.474,80.4282,36.3919,-79.9076,8759.03,-143.187
1.8,451.929,227.131,81.0055,28.8632,-376.437,-14826.5,-143.942
1.82,451.462,226.794,81.5814,28.7965,-3.33468,18655.1,-144.697
1.84,451.035,226.496,82.1014,26.0022,-139.712,-6818.85,-145.397
1.86,450.647,226.23,82.5723,23.5401,-123.109,830.152,-146.05
1.88,450.255,225.969,83.0433,23.5524,0.615331,6186.2,-146.703
1.9,449.854,225.71,83.5204,23.8548,15.1239,725.429,-147.379
1.92,449.432,225.442,84.0203,24.9948,56.9966,2093.63,-148.143
1.94,449.006,225.181,84.5203,25.003,0.41005,-2829.33,-148.906
1.96,448.577,224.926,85.0195,24.9554,-2.37774,-139.39,-149.67
1.98,448.132,224.669,85.533,25.6754,35.9982,1918.8,-150.483
2,447.682,224.418,86.0478,25.7434,3.40253,-1629.78,-151.304
2.02,447.229,224.173,86.563,25.7588,0.76945,-131.654,-152.125
2.04,446.76,223.93,87.0915,26.4238,33.2509,1624.07,-152.999
2.06,446.277,223.687,87.6324,27.0467,31.142,-105.444,-153.919
2.08,445.789,223.453,88.1736,27.0579,0.562803,-1528.96,-154.838
2.1,445.293,223.225,88.7195,27.298,12.0025,571.987,-155.78
2.12,444.772,222.996,89.2887,28.4589,58.0438,2302.06,-156.81
2.14,444.246,222.775,89.8588,28.5041,2.26338,-2789.02,-157.839
2.16,443.717,222.565,90.4285,28.4829,-1.06239,-166.289,-158.868
2.18,443.169,222.358,91.0137,29.2636,39.0376,2005,-159.96
2.2,442.614,222.162,91.6024,29.4323,8.43483,-1530.14,-161.062
2.22,442.056,221.976,92.1903,29.3983,-1.7017,-506.826,-162.164
2.24,441.482,221.797,92.7922,30.0922,34.6958,1819.87,-163.314
2.26,440.895,221.627,93.4034,30.5629,23.5321,-558.185,-164.504
2.28,440.303,221.469,94.0155,30.6052,2.11553,-1070.83,-165.695
2.3,439.705,221.323,94.6316,30.8023,9.85619,387.033,-166.904
2.32,439.084,221.186,95.2673,31.7872,49.2429,1969.34,-168.186
2.34,438.461,221.063,95.9026,31.7643,-1.14191,-2519.24,-169.468
2.36,437.834,220.953,96.5388,31.8076,2.16564,165.377,-170.75
2.38,437.197,220.857,97.183,32.2092,20.0766,895.55,-172.067
2.4,436.556,220.775,97.8292,32.3121,5.14794,-746.435,-173.388
2.42,435.914,220.707,98.4747,32.2771,-1.75156,-344.975,-174.709
2.44,435.267,220.655,99.1245,32.4859,10.4398,609.57,-176.045
2.46,434.614,220.618,99.7781,32.682,9.80692,-31.6461,-177.394
2.48,433.961,220.596,100.431,32.6532,-1.44105,-562.399,-178.742
2.5,433.308,220.589,101.084,32.6587,0.275427,85.8238,179.909
2.52,432.655,220.598,101.738,32.6593,0.0291714,-12.3128,178.56
2.54,432.003,220.622,102.39,32.6312,-1.40653,-71.7852,177.21
2.56,431.35,220.661,103.044,32.6849,2.6886,204.757,175.861
2.58,430.709,220.715,103.687,32.1758,-25.4552,-1407.19,174.549
2.6,430.071,220.783,104.329,32.0939,-4.09764,1067.88,173.242
2.62,429.435,220.866,104.971,32.0726,-1.06355,151.704,171.936
2.64,428.807,220.963,105.606,31.7819,-14.5374,-673.692,170.656
2.66,428.188,221.072,106.235,31.4181,-18.1894,-182.6,169.4
2.68,427.57,221.195,106.864,31.4697,2.58057,1038.5,168.145
2.7,426.961,221.33,107.489,31.2279,-12.091,-733.578,166.902
2.72,426.365,221.476,108.102,30.6664,-28.0732,-799.109,165.708
2.74,425.773,221.634,108.715,30.6316,-1.74212,1316.55,164.514
2.76,425.185,221.803,109.327,30.6152,-0.816961,46.2579,163.32
2.78,424.627,221.976,109.91,29.1788,-71.821,-3550.2,162.235
2.8,424.076,222.159,110.491,29.0269,-7.59679,3211.21,161.165
2.82,423.529,222.352,111.071,29.0135,-0.669656,346.357,160.095
2.84,422.995,222.551,111.641,28.4813,-26.6077,-1296.9,159.065
2.86,422.474,222.756,112.202,28.0325,-22.4397,208.399,158.069
2.88,421.956,222.971,112.762,28.0336,0.0538306,1124.68,157.073
2.9,421.445,223.193,113.319,27.8432,-9.52183,-478.783,156.092
2.92,420.952,223.417,113.861,27.0871,-37.8041,-1414.11,155.168
2.94,420.462,223.649,114.403,27.1018,0.736375,1927.02,154.244
2.96,419.976,223.888,114.944,27.064,-1.89144,-131.391,153.321
2.98,419.521,224.121,115.456,25.5814,-74.1272,-3611.79,152.513
3,419.073,224.359,115.963,25.3629,-10.9268,3160.02,151.722
3.02,418.628,224.602,116.47,25.3462,-0.836676,504.508,150.931
3.04,418.193,224.849,116.97,24.9896,-17.8259,-849.461,150.168
3.06,417.767,225.097,117.463,24.6636,-16.3032,76.1358,149.429
3.08,417.344,225.351,117.956,24.6665,0.144618,822.39,148.691
3.1,416.928,225.609,118.445,24.45,-10.8254,-548.499,147.969
3.12,416.53,225.862,118.918,23.6073,-42.133,-1565.38,147.311
3.14,416.134,226.12,119.39,23.6334,1.30251,2171.77,146.654
3.16,415.741,226.381,119.861,23.5631,-3.51288,-240.769,145.997
3.18,415.366,226.638,120.316,22.7436,-40.9764,-1873.17,145.408
3.2,414.996,226.896,120.768,22.5743,-8.46385,1625.63,144.83
3.22,414.628,227.158,121.219,22.5634,-0.545604,395.912,144.251
3.24,414.268,227.421,121.665,22.3214,-12.0984,-577.638,143.691
3.26,413.913,227.685,122.108,22.1311,-9.51687,129.075,143.147
3.28,413.56,227.952,122.55,22.1111,-0.999977,425.844,142.603
3.3,413.214,228.22,122.988,21.8743,-11.8403,-542.017,142.078
3.32,412.885,228.478,123.406,20.897,-48.865,-1851.23,141.627
3.34,412.559,228.74,123.824,20.8988,0.0903369,2447.76,141.177
3.36,412.235,229.003,124.242,20.9044,0.280664,9.51635,140.726
3.38,411.915,229.267,124.656,20.694,-10.518,-539.931,140.29
3.4,411.598,229.533,125.07,20.7065,0.624809,557.139,139.855
3.42,411.283,229.8,125.484,20.6874,-0.954401,-78.9605,139.421
3.44,410.977,230.064,125.887,20.179,-25.4205,-1223.31,139.025
3.46,410.681,230.325,126.282,19.7374,-22.0829,166.878,138.662
3.48,410.384,230.587,126.678,19.7836,2.30939,1219.62,138.298
3.5,410.091,230.85,127.071,19.6767,-5.34355,-382.647,137.939
3.52,409.802,231.112,127.461,19.5103,-8.32095,-148.87,137.595
3.54,409.515,231.376,127.852,19.5202,0.496337,440.864,137.25
3.56,409.23,231.642,128.242,19.5018,-0.922054,-70.9196,136.906
3.58,408.954,231.902,128.621,18.9469,-27.7407,-1340.93,136.607
3.6,408.681,232.162,128.997,18.8302,-5.83798,1095.14,136.314
3.62,408.41,232.422,129.373,18.781,-2.46124,168.837,136.022
3.64,408.142,232.682,129.747,18.6835,-4.87144,-120.51,135.74
3.66,407.877,232.943,130.118,18.5868,-4.83429,1.85774,135.468
3.68,407.613,233.204,130.49,18.5999,0.655253,274.477,135.195
3.7,407.352,233.465,130.859,18.4464,-7.67692,-416.609,134.931
3.72,407.098,233.721,131.22,18.0146,-21.5901,-695.66,134.7
3.74,406.844,233.977,131.58,18.0277,0.65423,1112.22,134.468
3.76,406.593,234.236,131.94,18.0159,-0.587895,-62.1062,134.237
3.78,406.344,234.493,132.299,17.9078,-5.40443,-240.827,134.017
3.8,406.096,234.75,132.656,17.8469,-3.04517,117.963,133.799
3.82,405.85,235.008,133.012,17.8484,0.0750011,156.008,133.581
3.84,405.608,235.264,133.365,17.6016,-12.3439,-620.945,133.382
3.86,405.369,235.517,133.712,17.379,-11.1264,60.8752,133.2
3.88,405.132,235.771,134.06,17.3943,0.762968,594.468,133.017
3.9,404.896,236.025,134.406,17.3183,-3.80211,-228.254,132.84
3.92,404.664,236.275,134.748,17.0695,-12.4354,-431.665,132.682
3.94,404.433,236.527,135.089,17.0724,0.141709,628.856,132.524
3.96,404.203,236.779,135.431,17.0886,0.812493,33.5392,132.365
3.98,403.977,237.027,135.766,16.7637,-16.2461,-852.929,132.228
4,403.752,237.276,136.102,16.778,0.713109,847.959,132.093
4.02,403.527,237.525,136.437,16.778,0.000205553,-35.6452,131.958
4.04,403.306,237.772,136.769,16.5875,-9.52547,-476.284,131.835
4.06,403.086,238.018,137.099,16.4807,-5.33649,209.449,131.723
4.08,402.867,238.264,137.429,16.4938,0.654411,299.545,131.61
4.1,402.65,238.51,137.757,16.3995,-4.71864,-268.653,131.502
4.12,402.435,238.753,138.081,16.1969,-10.1266,-270.4,131.412
4.14,402.222,238.996,138.404,16.1638,-1.65391,423.636,131.322
4.16,402.008,239.239,138.727,16.1769,0.654459,115.418,131.231
4.18,401.789,239.489,139.06,16.6203,22.1681,1075.68,131.109
4.2,401.57,239.739,139.393,16.6397,0.97293,-1059.76,130.983
4.22,401.352,239.99,139.725,16.6397,-0.000271055,-48.66,130.857
4.24,401.093,240.291,140.122,19.8242,159.224,7961.2,130.491
4.26,400.804,240.634,140.571,22.4485,131.213,-1400.52,129.92
4.28,400.518,240.98,141.02,22.4612,0.634319,-6528.94,129.349
4.3,400.237,241.326,141.466,22.2788,-9.117,-487.566,128.793
4.32,399.968,241.664,141.897,21.5611,-35.8853,-1338.42,128.293
4.34,399.703,242.003,142.327,21.5253,-1.79168,1704.68,127.794
4.36,399.441,242.344,142.758,21.5256,0.0158583,90.3768,127.294
4.38,399.188,242.679,143.177,20.9729,-27.6361,-1382.6,126.84
4.4,398.939,243.014,143.595,20.8745,-4.9214,1135.74,126.392
4.42,398.694,243.351,144.011,20.8259,-2.42791,124.674,125.944
4.44,398.454,243.685,144.422,20.5505,-13.7723,-567.218,125.521
4.46,398.22,244.016,144.828,20.2872,-13.1617,30.5289,125.119
4.48,397.988,244.348,145.233,20.2419,-2.26657,544.756,124.717
4.5,397.76,244.68,145.636,20.1499,-4.60166,-116.754,124.323
4.52,397.539,245.006,146.03,19.7028,-22.3533,-887.581,123.962
4.54,397.319,245.335,146.425,19.7579,2.75326,1255.33,123.601
4.56,397.102,245.664,146.819,19.7156,-2.11126,-243.226,123.239
4.58,396.892,245.986,147.204,19.2352,-24.0228,-1095.58,122.918
4.6,396.685,246.308,147.586,19.1154,-5.98804,901.738,122.602
4.62,396.48,246.631,147.969,19.1306,0.75901,337.352,122.286
4.64,396.279,246.951,148.347,18.9105,-11.0061,-588.257,121.988
4.66,396.081,247.269,148.722,18.7166,-9.69193,65.7097,121.704
4.68,395.886,247.588,149.096,18.7199,0.161826,492.688,121.421
4.7,395.693,247.906,149.468,18.5893,-6.52895,-334.539,121.144
4.72,395.504,248.22,149.834,18.3346,-12.7352,-310.311,120.893
4.74,395.317,248.534,150.2,18.2534,-4.0574,433.889,120.641
4.76,395.132,248.85,150.566,18.301,2.37744,321.742,120.39
4.78,394.951,249.159,150.924,17.9214,-18.9805,-1067.9,120.168
4.8,394.772,249.468,151.281,17.8619,-2.97168,800.44,119.95
4.82,394.595,249.778,151.638,17.837,-1.24608,86.28,119.732
4.84,394.421,250.084,151.99,17.5939,-12.1563,-545.509,119.534
4.86,394.251,250.386,152.337,17.3599,-11.7019,22.7171,119.352
4.88,394.08,250.69,152.685,17.4034,2.1793,694.06,119.17
4.9,393.912,250.992,153.031,17.2743,-6.45611,-431.77,118.996
4.92,393.749,251.287,153.368,16.8749,-19.9694,-675.662,118.854
4.94,393.587,251.583,153.705,16.8639,-0.549381,970.999,118.711
4.96,393.426,251.879,154.042,16.8269,-1.85198,-65.1299,118.569
4.98,393.27,252.165,154.368,16.3188,-25.4066,-1177.73,118.471
5,393.117,252.45,154.692,16.1795,-6.96301,922.182,118.38
5.02,392.963,252.735,155.016,16.1926,0.654659,380.883,118.288
5.04,392.814,253.015,155.332,15.8309,-18.0868,-937.073,118.227
5.06,392.667,253.287,155.642,15.4596,-18.5651,-23.9144,118.191
5.08,392.522,253.56,155.951,15.467,0.37053,946.781,118.156
5.1,392.377,253.831,156.258,15.3443,-6.13302,-325.178,118.127
5.12,392.236,254.097,156.559,15.0612,-14.1564,-401.166,118.123
5.14,392.094,254.362,156.86,15.0612,3.39163e-07,707.818,118.119
5.16,391.953,254.628,157.161,15.0612,3.26179e-07,-6.49201e-07,118.115
5.18,391.82,254.879,157.445,14.1842,-43.8513,-2192.56,118.178
5.2,391.687,255.126,157.726,14.0459,-6.91567,1846.78,118.25
5.22,391.554,255.373,158.007,14.0328,-0.654526,313.057,118.323
5.24,391.424,255.616,158.282,13.7758,-12.8505,-609.796,118.419
5.26,391.295,255.853,158.551,13.4497,-16.3027,-172.614,118.535
5.28,391.167,256.09,158.821,13.4936,2.19753,925.013,118.651
5.3,391.04,256.324,159.087,13.2926,-10.0511,-612.43,118.779
5.32,390.916,256.547,159.342,12.7647,-26.3971,-817.302,118.951
5.34,390.793,256.771,159.598,12.7778,0.655057,1352.61,119.122
5.36,390.668,256.994,159.853,12.7696,-0.409375,-53.2216,119.294
5.38,390.548,257.207,160.098,12.2679,-25.0868,-1233.87,119.501
5.4,390.427,257.42,160.343,12.2139,-2.69691,1119.5,119.714
5.42,390.306,257.632,160.587,12.1952,-0.933855,88.1528,119.927
5.44,390.185,257.841,160.828,12.0762,-5.9532,-250.967,120.151
5.46,390.065,258.047,161.067,11.9271,-7.45342,-75.011,120.385
5.48,389.944,258.253,161.306,11.9524,1.26251,435.797,120.619
5.5,389.823,258.458,161.544,11.9085,-2.19206,-172.729,120.855
5.52,389.701,258.66,161.78,11.8253,-4.16041,-98.4172,121.098
5.54,389.579,258.863,162.017,11.8253,4.90299e-05,208.023,121.341
5.56,389.455,259.064,162.253,11.792,-1.66755,-83.38,121.584
5.58,389.33,259.266,162.49,11.8738,4.09376,288.066,121.826
5.6,389.206,259.466,162.726,11.7888,-4.25015,-417.195,122.068
5.62,389.079,259.667,162.963,11.855,3.30737,377.876,122.309
5.64,388.95,259.87,163.204,12.062,10.3516,352.212,122.533
5.66,388.817,260.077,163.45,12.2722,10.508,7.82173,122.743
5.68,388.684,260.283,163.695,12.2703,-0.0947659,-530.14,122.952
5.7,388.55,260.489,163.941,12.2818,0.575816,33.5291,123.159
5.72,388.415,260.695,164.188,12.3342,2.61796,102.107,123.362
5.74,388.278,260.901,164.435,12.3605,1.31719,-65.0384,123.564
5.76,388.141,261.107,164.682,12.3474,-0.654694,-98.5944,123.767
5.78,387.998,261.319,164.938,12.8196,23.6114,1213.3,123.935
5.8,387.855,261.532,165.194,12.8026,-0.852778,-1223.21,124.099
5.82,387.71,261.744,165.452,12.8718,3.45882,215.58,124.262
5.84,387.563,261.96,165.713,13.055,9.16288,285.203,124.411
5.86,387.413,262.178,165.977,13.2253,8.51291,-32.4985,124.546
5.88,387.262,262.396,166.242,13.2406,0.765756,-387.358,124.682
5.9,387.111,262.615,166.508,13.3191,3.92693,158.059,124.812
5.92,386.956,262.837,166.779,13.5398,11.0358,355.446,124.922
5.94,386.801,263.059,167.051,13.5684,1.42969,-480.308,125.032
5.96,386.644,263.281,167.322,13.5563,-0.608008,-101.885,125.142
5.98,386.485,263.507,167.598,13.8312,13.7442,717.612,125.231
6,386.325,263.733,167.875,13.8573,1.309,-621.762,125.318
6.02,386.164,263.96,168.153,13.8993,2.09929,39.5145,125.404
6.04,386.001,264.188,168.434,14.0026,5.16264,153.167,125.479
6.06,385.837,264.418,168.716,14.1204,5.89047,36.3915,125.545
6.08,385.673,264.648,168.998,14.1204,4.7713e-05,-294.521,125.611
6.1,385.508,264.879,169.282,14.2018,4.07222,203.609,125.673
6.12,385.34,265.112,169.569,14.3458,7.1995,156.364,125.724
6.14,385.172,265.344,169.856,14.3476,0.0882547,-355.562,125.774
6.16,385.005,265.577,170.143,14.3183,-1.46386,-77.6058,125.824
6.18,384.835,265.812,170.433,14.5321,10.6894,607.661,125.863
6.2,384.664,266.047,170.724,14.5178,-0.717154,-570.325,125.9
6.22,384.494,266.282,171.014,14.5047,-0.654503,3.13255,125.938
6.24,384.323,266.518,171.305,14.5427,1.90373,127.911,125.97
6.26,384.151,266.755,171.598,14.6487,5.29577,169.602,125.997
6.28,383.978,266.992,171.891,14.678,1.46919,-191.329,126.024
6.3,383.806,267.229,172.184,14.6344,-2.18348,-182.634,126.049
6.32,383.632,267.468,172.48,14.7958,8.07396,512.872,126.067
6.34,383.458,267.706,172.775,14.7424,-2.67379,-537.388,126.086
