"time","x","y","position","velocity","acceleration","jerk","heading"
0,502.206,289.898,0,0,150,0,-180
0.02,502.033,289.898,0.173205,3,150,0,-179.977
0.04,501.86,289.898,0.34641,6,150,0,-179.955
0.06,501.687,289.898,0.519615,9,150,0,-179.932
0.08,501.513,289.898,0.69282,12,150,0,-179.91
0.1,501.34,289.898,0.866025,15,150,0,-179.887
0.12,501.112,289.898,1.09471,18,150,0,-179.855
0.14,500.693,289.897,1.51286,21,150,0,-179.789
0.16,500.275,289.895,1.93102,24,150,0,-179.724
0.18,499.751,289.893,2.45505,27,150,0,-179.542
0.2,499.206,289.888,3,30,150,0,-179.337
0.22,498.56,289.879,3.64641,33,150,0,-179.063
0.24,497.874,289.867,4.33237,36,116.763,0,-178.712
0.26,497.136,289.848,5.0709,38.8199,46.4549,0,-178.263
0.28,496.349,289.821,5.8582,39.8199,7.09007,0,-177.736
0.3,495.552,289.786,6.65591,40,0,0,-177.109
0.32,494.753,289.741,7.45591,40,0,0,-176.422
0.34,493.955,289.687,8.25591,40,0,0,-175.679
0.36,493.158,289.621,9.05591,40,0,0,-174.873
0.38,492.362,289.544,9.85591,40,0,0,-173.992
0.4,491.567,289.455,10.6559,40,0,0,-173.065
0.42,490.773,289.352,11.4559,40,0,0,-172.077
0.44,489.982,289.235,12.2559,40,0,0,-171.041
0.46,489.193,289.103,13.0559,40,0,0,-169.977
0.48,488.406,288.957,13.8559,40,0,0,-168.83
0.5,487.623,288.794,14.6559,40,0,0,-167.67
0.52,486.843,288.615,15.4559,40,0,0,-166.465
0.54,486.068,288.42,16.2559,40,0,0,-165.225
0.56,485.296,288.208,17.0559,40,0,0,-163.974
0.58,484.53,287.978,17.8559,40,0,0,-162.683
0.6,483.769,287.732,18.6559,40,0,0,-161.384
0.62,483.014,287.468,19.4559,40,0,0,-160.074
0.64,482.265,287.186,20.2559,40,0,0,-158.755
0.66,481.523,286.888,21.0559,40,0,0,-157.437
0.68,480.787,286.573,21.8559,40,0,0,-156.117
0.7,480.06,286.24,22.6559,40,0,0,-154.81
0.72,479.34,285.891,23.4559,40,0,0,-153.51
0.74,478.628,285.526,24.2559,40,0,0,-152.225
0.76,477.924,285.146,25.0559,40,0,0,-150.964
0.78,477.229,284.75,25.8559,40,0,0,-149.711
0.8,476.543,284.339,26.6559,40,0,0,-148.503
0.82,475.865,283.914,27.4559,40,0,0,-147.309
0.84,475.197,283.474,28.2559,40,0,0,-146.141
0.86,474.537,283.022,29.0559,40,0,0,-145.023
0.88,473.886,282.557,29.8559,40,0,0,-143.909
0.9,473.244,282.079,30.6559,40,0,0,-142.859
0.92,472.611,281.59,31.4559,40,0,0,-141.826
0.94,471.987,281.09,32.2559,40,0,0,-140.816
0.96,471.371,280.579,33.0559,40,0,0,-139.851
0.98,470.764,280.059,33.8559,40,0,0,-138.927
1,470.165,279.528,34.6559,40,0,0,-138.039
1.02,469.574,278.989,35.4559,40,0,0,-137.182
1.04,468.991,278.441,36.2559,40,0,0,-136.358
1.06,468.416,277.885,37.0559,40,0,0,-135.566
1.08,467.849,277.321,37.8559,40,0,0,-134.813
1.1,467.288,276.75,38.6559,40,0,0,-134.093
1.12,466.735,276.172,39.4559,40,0,0,-133.403
1.14,466.189,275.587,40.2559,40,0,0,-132.742
1.16,465.649,274.997,41.0559,40,0,0,-132.11
1.18,465.116,274.4,41.8559,40,0,0,-131.512
1.2,464.589,273.798,42.6559,40,0,0,-130.943
1.22,464.068,273.192,43.4559,40,0,0,-130.4
1.24,463.552,272.58,44.2559,40,0,0,-129.883
1.26,463.042,271.964,45.0559,40,0,0,-129.39
1.28,462.537,271.343,45.8559,40,0,0,-128.928
1.3,462.037,270.719,46.6559,40,0,0,-128.491
1.32,461.541,270.091,47.4559,40,0,0,-128.077
1.34,461.05,269.459,48.2559,40,0,0,-127.686
1.36,460.563,268.825,49.0559,40,0,0,-127.317
1.38,460.08,268.187,49.8559,40,0,0,-126.975
1.4,459.601,267.546,50.6559,40,0,0,-126.656
1.42,459.125,266.903,51.4559,40,0,0,-126.36
1.44,458.652,266.258,52.2559,40,0,0,-126.085
1.46,458.183,265.61,53.0559,40,0,0,-125.831
1.48,457.716,264.961,53.8559,40,0,0,-125.601
1.5,457.251,264.309,54.6559,40,0,0,-125.394
1.52,456.789,263.656,55.4559,40,0,0,-125.206
1.54,456.329,263.002,56.2559,40,0,0,-125.038
1.56,455.871,262.346,57.0559,40,0,0,-124.889
1.58,455.414,261.689,57.8559,40,0,0,-124.766
1.6,454.958,261.032,58.6559,40,0,0,-124.664
1.62,454.504,260.373,59.4559,40,0,0,-124.583
1.64,454.05,259.714,60.2559,40,0,0,-124.522
1.66,453.597,259.055,61.0559,40,0,0,-124.482
1.68,453.144,258.396,61.8559,40,0,0,-124.471
1.7,452.692,257.736,62.6559,40,0,0,-124.484
1.72,452.239,257.077,63.4559,40,0,0,-124.52
1.74,451.785,256.418,64.2559,40,0,0,-124.579
1.76,451.331,255.759,65.0559,40,0,0,-124.661
1.78,450.875,255.102,65.8559,40,0,0,-124.775
1.8,450.418,254.445,66.6559,40,0,0,-124.917
1.82,449.959,253.79,67.4559,40,0,0,-125.087
1.84,449.499,253.136,68.2559,40,0,0,-125.285
1.86,449.035,252.483,69.0559,40,0,0,-125.514
1.88,448.569,251.833,69.8559,40,0,0,-125.782
1.9,448.1,251.185,70.6559,40,0,0,-126.088
1.92,447.627,250.54,71.4559,40,0,0,-126.431
1.94,447.15,249.898,72.2559,40,0,0,-126.817
1.96,446.669,249.259,73.0559,40,0,0,-127.254
1.98,446.182,248.624,73.8559,40,0,0,-127.736
2,445.69,247.993,74.6559,40,0,0,-128.273
2.02,445.192,247.367,75.4559,40,0,0,-128.861
2.04,444.687,246.747,76.2559,40,0,0,-129.509
2.06,444.174,246.132,77.0559,40,0,0,-130.229
2.08,443.654,245.525,77.8559,40,0,0,-131.007
2.1,443.125,244.925,78.6559,40,0,0,-131.911
2.12,442.586,244.333,79.4559,40,0,0,-132.873
2.14,442.037,243.751,80.2559,40,0,0,-133.927
2.16,441.477,243.181,81.0559,40,0,0,-135.139
2.18,440.904,242.622,81.8559,40,0,0,-136.45
2.2,440.318,242.077,82.6559,40,0,0,-137.904
2.22,439.718,241.549,83.4559,40,0,0,-139.538
2.24,439.102,241.038,84.2559,40,-22.3923,0,-141.339
2.26,438.471,240.548,85.0543,39.8777,-90.8959,0,-143.273
2.28,437.84,240.095,85.8318,38.1277,-139.489,0,-145.42
2.3,437.235,239.693,86.5587,35.3981,-150,0,-147.672
2.32,436.655,239.34,87.2372,32.3981,-150,0,-149.925
2.34,436.111,239.037,87.8599,29.3981,-150,0,-152.135
2.36,435.63,238.792,88.4001,26.3981,-150,0,-154.208
2.38,435.161,238.575,88.9165,23.3981,-150,0,-156.242
2.4,434.792,238.418,89.3178,20.3981,-102.328,0,-157.993
2.42,434.438,238.281,89.6969,17.3981,-45.459,0,-159.689
2.44,434.096,238.159,90.0602,15,0,0,-161.338
2.46,433.811,238.067,90.3602,15,0,0,-162.797
2.48,433.523,237.981,90.6602,15,0,0,-164.255
2.5,433.233,237.903,90.9602,15,0,0,-165.714
2.52,432.942,237.832,91.2602,15,0,0,-167.247
2.54,432.648,237.77,91.5602,15,0,0,-168.79
2.56,432.354,237.715,91.8602,15,0,0,-170.334
2.58,432.057,237.668,92.1602,15,0,0,-171.907
2.6,431.76,237.63,92.4602,15,0,0,-173.506
2.62,431.461,237.6,92.7602,15,0,0,-175.105
2.64,431.162,237.579,93.0602,15,0,0,-176.707
2.66,430.862,237.566,93.3602,15,0,0,-178.324
2.68,430.562,237.561,93.6602,15,0,0,-179.94
2.7,430.262,237.565,93.9602,15,0,0,178.444
2.72,429.963,237.578,94.2602,15,0,0,176.863
2.74,429.663,237.598,94.5602,15,0,0,175.287
2.76,429.365,237.627,94.8602,15,0,0,173.712
2.78,429.067,237.664,95.1602,15,0,0,172.187
2.8,428.77,237.709,95.4602,15,0,0,170.705
2.82,428.475,237.762,95.7602,15,0,0,169.223
2.84,428.181,237.822,96.0602,15,0,0,167.763
2.86,427.889,237.89,96.3602,15,0,0,166.389
2.88,427.598,237.965,96.6602,15,0,0,165.015
2.9,427.31,238.046,96.9602,15,0,0,163.64
2.92,427.023,238.135,97.2602,15,0,0,162.365
2.94,426.738,238.229,97.5602,15,0,0,161.104
2.96,426.456,238.33,97.8602,15,0,0,159.843
2.98,426.175,238.437,98.1602,15,0,0,158.649
3,425.897,238.549,98.4602,15,0,0,157.512
3.02,425.621,238.667,98.7602,15,0,0,156.375
3.04,425.348,238.79,99.0602,15,0,0,155.271
3.06,425.077,238.919,99.3602,15,0,0,154.296
3.08,424.808,239.051,99.6602,15,0,0,153.322
3.1,424.541,239.189,99.9602,15,0,0,152.347
3.12,424.277,239.331,100.26,15,0,0,151.455
3.14,424.015,239.477,100.56,15,0,0,150.575
3.16,423.755,239.627,100.86,15,0,0,149.695
3.18,423.497,239.78,101.16,15,0,0,148.86
3.2,423.242,239.938,101.46,15,0,0,148.062
3.22,422.988,240.098,101.76,15,0,0,147.265
3.24,422.737,240.263,102.06,15,0,0,146.495
3.26,422.488,240.43,102.36,15,0,0,145.833
3.28,422.241,240.6,102.66,15,0,0,145.171
3.3,421.996,240.773,102.96,15,0,0,144.51
3.32,421.753,240.949,103.26,15,0,0,143.899
3.34,421.512,241.127,103.56,15,0,0,143.296
3.36,421.273,241.308,103.86,15,0,0,142.693
3.38,421.035,241.492,104.16,15,0,0,142.123
3.4,420.8,241.677,104.46,15,0,0,141.582
3.42,420.566,241.865,104.76,15,0,0,141.041
3.44,420.333,242.055,105.06,15,0,0,140.517
3.46,420.103,242.247,105.36,15,0,0,140.064
3.48,419.874,242.441,105.66,15,0,0,139.611
3.5,419.646,242.636,105.96,15,0,0,139.157
3.52,419.42,242.833,106.26,15,0,0,138.729
3.54,419.196,243.032,106.56,15,0,0,138.305
3.56,418.973,243.233,106.86,15,0,0,137.88
3.58,418.751,243.435,107.16,15,0,0,137.493
3.6,418.531,243.639,107.46,15,0,0,137.138
3.62,418.311,243.844,107.76,15,0,0,136.783
3.64,418.094,244.05,108.06,15,0,0,136.434
3.66,417.877,244.258,108.36,15,0,0,136.111
3.68,417.662,244.466,108.66,15,0,0,135.787
3.7,417.448,244.676,108.96,15,0,0,135.464
3.72,417.234,244.888,109.26,15,0,0,135.175
3.74,417.022,245.1,109.56,15,0,0,134.892
3.76,416.811,245.313,109.86,15,0,0,134.609
3.78,416.601,245.527,110.16,15,0,0,134.347
3.8,416.392,245.742,110.46,15,0,0,134.103
3.82,416.184,245.958,110.76,15,0,0,133.86
3.84,415.977,246.175,111.06,15,0,0,133.62
3.86,415.77,246.393,111.36,15,0,0,133.399
3.88,415.565,246.611,111.66,15,0,0,133.178
3.9,415.36,246.831,111.96,15,0,0,132.957
3.92,415.156,247.051,112.26,15,0,0,132.774
3.94,414.953,247.271,112.56,15,0,0,132.596
3.96,414.75,247.493,112.86,15,0,0,132.419
3.98,414.548,247.715,113.16,15,0,0,132.247
4,414.347,247.937,113.46,15,0,0,132.081
4.02,414.147,248.16,113.76,15,0,0,131.915
4.04,413.947,248.384,114.06,15,0,0,131.758
4.06,413.747,248.608,114.36,15,0,0,131.639
4.08,413.548,248.832,114.66,15,0,0,131.52
4.1,413.35,249.057,114.96,15,0,0,131.4
4.12,413.152,249.283,115.26,15,0,0,131.274
4.14,412.954,249.508,115.56,15,0,0,131.147
4.16,412.757,249.734,115.86,15,0,0,131.02
4.18,412.561,249.961,116.16,15,0,0,130.588
4.2,412.367,250.191,116.46,15,0,0,129.89
4.22,412.176,250.422,116.76,15,0,0,129.192
4.24,411.988,250.656,117.06,15,0,0,128.513
4.26,411.803,250.892,117.36,15,0,0,127.904
4.28,411.62,251.13,117.66,15,0,0,127.296
4.3,411.44,251.37,117.96,15,0,0,126.688
4.32,411.262,251.611,118.26,15,0,0,126.146
4.34,411.087,251.855,118.56,15,0,0,125.614
4.36,410.914,252.1,118.86,15,0,0,125.082
4.38,410.743,252.346,119.16,15,0,0,124.585
4.4,410.574,252.594,119.46,15,0,0,124.121
4.42,410.407,252.843,119.76,15,0,0,123.656
4.44,410.241,253.094,120.06,15,0,0,123.204
4.46,410.078,253.345,120.36,15,0,0,122.805
4.48,409.917,253.598,120.66,15,0,0,122.407
4.5,409.757,253.852,120.96,15,0,0,122.008
4.52,409.599,254.107,121.26,15,0,0,121.662
4.54,409.442,254.363,121.56,15,0,0,121.324
4.56,409.287,254.62,121.86,15,0,0,120.986
4.58,409.134,254.877,122.16,15,0,0,120.673
4.6,408.981,255.136,122.46,15,0,0,120.383
4.62,408.83,255.395,122.76,15,0,0,120.092
4.64,408.681,255.655,123.06,15,0,0,119.81
4.66,408.532,255.916,123.36,15,0,0,119.567
4.68,408.385,256.177,123.66,15,0,0,119.323
4.7,408.239,256.439,123.96,15,0,0,119.079
4.72,408.094,256.702,124.26,15,0,0,118.876
4.74,407.95,256.965,124.56,15,0,0,118.68
4.76,407.806,257.228,124.86,15,0,0,118.484
4.78,407.664,257.492,125.16,15,0,0,118.315
4.8,407.522,257.757,125.46,15,0,0,118.168
4.82,407.381,258.022,125.76,15,0,0,118.022
4.84,407.24,258.287,126.06,15,0,0,117.887
4.86,407.1,258.552,126.36,15,0,0,117.794
4.88,406.961,258.818,126.66,15,0,0,117.7
4.9,406.822,259.083,126.96,15,0,0,117.607
4.92,406.683,259.349,127.26,15,0,0,117.567
4.94,406.544,259.615,127.56,15,0,0,117.535
4.96,406.406,259.882,127.86,15,0,0,117.502
4.98,406.268,260.148,128.16,15,0,0,117.514
5,406.129,260.414,128.46,15,0,0,117.565
5.02,405.991,260.68,128.76,15,0,0,117.615
5.04,405.852,260.946,129.06,15,0,0,117.669
5.06,405.713,261.212,129.36,15,0,0,117.736
5.08,405.573,261.477,129.66,15,0,0,117.804
5.1,405.434,261.743,129.96,15,0,0,117.871
5.12,405.294,262.008,130.26,15,0,0,118.029
5.14,405.152,262.273,130.56,15,0,0,118.2
5.16,405.011,262.537,130.86,15,0,0,118.371
5.18,404.868,262.801,131.16,15,0,0,118.557
5.2,404.724,263.065,131.46,15,0,0,118.755
5.22,404.58,263.328,131.76,15,0,0,118.953
5.24,404.435,263.59,132.06,15,0,0,119.164
5.26,404.288,263.852,132.36,15,0,0,119.427
5.28,404.14,264.113,132.66,15,0,0,119.69
5.3,403.991,264.373,132.96,15,0,0,119.954
5.32,403.841,264.633,133.26,15,0,0,120.232
5.34,403.689,264.892,133.56,15,0,0,120.512
5.36,403.536,265.15,133.86,15,0,0,120.792
5.38,403.382,265.407,134.16,15,0,0,121.082
5.4,403.227,265.664,134.46,15,0,0,121.378
5.42,403.07,265.919,134.76,15,0,0,121.675
5.44,402.912,266.174,135.06,15,0,0,121.967
5.46,402.752,266.428,135.36,15,0,0,122.241
5.48,402.591,266.682,135.66,15,0,0,122.514
5.5,402.429,266.934,135.96,15,0,0,122.788
5.52,402.266,267.186,136.26,15,0,0,123.054
5.54,402.102,267.437,136.56,15,0,0,123.32
5.56,401.936,267.687,136.86,15,0,0,123.585
5.58,401.77,267.937,137.16,15,0,0,123.814
5.6,401.602,268.185,137.46,15,0,0,124.012
5.62,401.434,268.434,137.76,15,0,0,124.21
5.64,401.264,268.681,138.06,15,0,0,124.406
5.66,401.094,268.928,138.36,15,0,0,124.596
5.68,400.923,269.175,138.66,15,0,0,124.787
5.7,400.751,269.421,138.96,15,0,0,124.978
5.72,400.579,269.666,139.26,15,0,0,125.117
5.74,400.406,269.912,139.56,15,0,0,125.248
5.76,400.233,270.156,139.86,15,0,0,125.38
5.78,400.059,270.401,140.16,15,0,0,125.492
5.8,399.884,270.645,140.46,15,0,0,125.589
5.82,399.709,270.889,140.76,15,0,0,125.685
5.84,399.534,271.132,141.06,15,0,0,125.775
5.86,399.359,271.375,141.36,15,0,0,125.84
5.88,399.183,271.618,141.66,15,0,0,125.906
5.9,399.007,271.861,141.96,15,0,0,125.971
5.92,398.83,272.104,142.26,15,0,0,126.016
5.94,398.654,272.347,142.56,15,0,0,126.057
5.96,398.477,272.589,142.86,15,0,0,126.098
5.98,398.3,272.831,143.16,15,0,0,126.13
6,398.123,273.073,143.46,15,0,0,126.154
6.02,397.946,273.316,143.76,15,0,0,126.178
6.04,397.769,273.558,144.06,15,0,0,126.199
6.06,397.592,273.8,144.36,15,0,0,126.21
6.08,397.414,274.042,144.66,15,0,0,126.221
6.1,397.237,274.284,144.96,15,0,0,126.232
6.12,397.06,274.526,145.26,15,0,0,126.235
6.14,396.882,274.768,145.56,15,0,0,126.237
6.16,396.705,275.01,145.86,15,0,0,126.239
6.18,396.528,275.252,146.16,15,0,0,126.238
6.2,396.35,275.494,146.46,15,0,0,126.234
6.22,396.173,275.736,146.76,15,0,0,126.231
6.24,395.996,275.978,147.06,15,0,0,126.226
6.26,395.818,276.22,147.36,15,0,0,126.219
6.28,395.641,276.462,147.66,15,0,0,126.212
6.3,395.464,276.704,147.96,15,0,0,126.205
6.32,395.287,276.946,148.26,15,-29.2738,0,126.198
6.34,395.11,277.188,148.56,15,-63.0238,0,126.191
6.36,394.932,277.43,148.86,15,-96.7738,0,126.183
6.38,394.803,277.607,149.08,13.7984,-112.5,0,126.179
6.4,394.714,277.729,149.23,11.5484,-112.5,0,126.176
6.42,394.626,277.85,149.38,9.29841,-112.5,0,126.174
6.44,394.537,277.971,149.53,7.04841,-112.5,0,126.172
6.46,394.449,278.092,149.68,4.79841,-112.5,0,126.17
6.48,394.36,278.213,149.83,2.54841,-112.5,0,126.167
6.5,394.272,278.334,149.98,0.298413,-112.5,0,126.165
