"time","x","y","position","velocity","acceleration","jerk","heading"
0,514.143,273.193,0,0,0,0,-180
0.02,513.972,273.193,0.170644,8.53219,426.61,21330.5,-179.991
0.04,513.802,273.193,0.341288,8.53219,1.47526e-07,-21330.5,-179.982
0.06,513.631,273.193,0.512193,8.54528,0.654499,32.7249,-179.974
0.08,513.459,273.193,0.683837,8.58219,1.8455,59.5502,-179.965
0.1,513.289,273.193,0.854481,8.53219,-2.5,-217.275,-179.956
0.12,513.065,273.193,1.07751,11.1513,130.955,6672.75,-179.937
0.14,512.661,273.192,1.48237,20.2432,454.596,16182,-179.883
0.16,512.257,273.191,1.88597,20.1801,-3.1545,-22887.5,-179.828
0.18,511.76,273.189,2.38301,24.8519,233.591,11837.3,-179.725
0.2,511.244,273.186,2.8987,25.7843,46.6206,-9348.5,-179.613
0.22,510.646,273.182,3.49707,29.9186,206.713,8004.61,-179.431
0.24,510.017,273.175,4.12656,31.4744,77.7882,-6446.24,-179.215
0.26,509.345,273.165,4.79828,33.586,105.583,1389.74,-178.95
0.28,508.623,273.149,5.51992,36.0821,124.806,961.162,-178.608
0.3,507.863,273.128,6.28075,38.0416,97.9728,-1341.67,-178.182
0.32,507.066,273.099,7.07782,39.8534,90.5901,-369.136,-177.672
0.34,506.235,273.062,7.9095,41.5842,86.5387,-202.572,-177.071
0.36,505.371,273.013,8.77491,43.2701,84.2979,-112.041,-176.371
0.38,504.477,272.95,9.67165,44.837,78.3456,-297.614,-175.565
0.4,503.554,272.871,10.598,46.3177,74.0308,-215.742,-174.645
0.42,502.629,272.776,11.5277,46.4837,8.30249,-3286.41,-173.615
0.44,501.724,272.667,12.4391,45.5691,-45.7287,-2701.56,-172.51
0.46,500.839,272.541,13.3338,44.7354,-41.6879,202.04,-171.344
0.48,499.97,272.399,14.2137,43.9988,-36.829,242.943,-170.123
0.5,499.117,272.242,15.0807,43.3483,-32.5238,215.26,-168.851
0.52,498.281,272.067,15.9348,42.7061,-32.1101,20.684,-167.528
0.54,497.461,271.875,16.7777,42.1459,-28.0113,204.943,-166.166
0.56,496.652,271.666,17.6126,41.7445,-20.072,396.963,-164.77
0.58,495.855,271.439,18.4414,41.438,-15.3226,237.469,-163.352
0.6,495.069,271.193,19.2651,41.1864,-12.5803,137.115,-161.916
0.62,494.292,270.928,20.0867,41.0779,-5.42352,357.84,-160.47
0.64,493.522,270.644,20.9071,41.0222,-2.7885,131.751,-159.02
0.66,492.76,270.341,21.7275,41.0204,-0.0882923,135.01,-157.573
0.68,492.001,270.016,22.5523,41.2366,10.8114,544.986,-156.137
0.7,491.249,269.672,23.38,41.3847,7.4025,-170.446,-154.716
0.72,490.499,269.306,24.2144,41.7198,16.7554,467.645,-153.318
0.74,489.753,268.921,25.0537,41.9695,12.4863,-213.452,-151.944
0.76,489.008,268.513,25.9031,42.4699,25.0178,626.571,-150.602
0.78,488.266,268.083,26.7602,42.8505,19.0299,-299.395,-149.294
0.8,487.526,267.631,27.6274,43.3629,25.6197,329.491,-148.021
0.82,486.787,267.159,28.5046,43.8617,24.9444,-33.7639,-146.789
0.84,486.049,266.665,29.3924,44.3888,26.3532,70.4402,-145.596
0.86,485.312,266.149,30.2923,44.9915,30.1348,189.079,-144.45
0.88,484.577,265.611,31.2028,45.5274,26.7957,-166.954,-143.344
0.9,483.843,265.055,32.1235,46.0371,25.4867,-65.4495,-142.278
0.92,483.11,264.477,33.0573,46.6885,32.5692,354.126,-141.259
0.94,482.378,263.879,34.0033,47.2977,30.4573,-105.599,-140.29
0.96,481.646,263.262,34.96,47.8388,27.0572,-170.001,-139.361
0.98,480.918,262.626,35.9267,48.3315,24.6327,-121.226,-138.47
1,480.191,261.972,36.9042,48.8762,27.2371,130.218,-137.622
1.02,479.464,261.299,37.8954,49.5623,34.3055,353.422,-136.824
1.04,478.738,260.61,38.8963,50.0428,24.0228,-514.139,-136.062
1.06,478.016,259.903,39.9065,50.5116,23.4413,-29.0712,-135.337
1.08,477.293,259.182,40.9277,51.0576,27.3007,192.97,-134.654
1.1,476.574,258.444,41.9584,51.5334,23.7907,-175.502,-134.007
1.12,475.855,257.692,42.9982,51.9929,22.971,-40.9866,-133.397
1.14,475.137,256.924,44.0494,52.5575,28.2322,263.063,-132.826
1.16,474.421,256.144,45.1087,52.9667,20.4574,-388.741,-132.29
1.18,473.706,255.351,46.1761,53.3696,20.147,-15.52,-131.783
1.2,472.992,254.545,47.253,53.8481,23.9277,189.031,-131.313
1.22,472.278,253.726,48.3397,54.3314,24.1632,11.7792,-130.88
1.24,471.566,252.896,49.4332,54.6776,17.3118,-342.571,-130.474
1.26,470.852,252.056,50.5356,55.1181,22.0205,235.434,-130.102
1.28,470.14,251.203,51.6471,55.5732,22.7562,36.7861,-129.762
1.3,469.427,250.342,52.7644,55.8689,14.7877,-398.424,-129.448
1.32,468.713,249.469,53.8922,56.3874,25.9248,556.853,-129.171
1.34,467.998,248.587,55.0278,56.7832,19.7884,-306.82,-128.925
1.36,467.281,247.697,56.1704,57.1277,17.2225,-128.298,-128.706
1.38,466.563,246.798,57.3215,57.5567,21.4518,211.467,-128.518
1.4,465.843,245.89,58.4807,57.9604,20.1847,-63.3563,-128.362
1.42,465.12,244.973,59.6478,58.3515,19.5571,-31.3789,-128.237
1.44,464.393,244.049,60.8233,58.7787,21.3606,90.1774,-128.144
1.46,463.661,243.117,62.0085,59.2584,23.9828,131.106,-128.087
1.48,462.927,242.178,63.2003,59.5895,16.5557,-371.353,-128.057
1.5,462.186,241.233,64.4013,60.0523,23.1391,329.171,-128.06
1.52,461.439,240.279,65.6134,60.602,27.4845,217.269,-128.108
1.54,460.685,239.318,66.8347,61.0648,23.1414,-217.154,-128.189
1.56,459.93,238.361,68.0537,60.9492,-5.77963,-1446.05,-128.303
1.58,459.195,237.433,69.2375,59.1891,-88.0065,-4111.35,-128.455
1.6,458.49,236.548,70.369,56.5798,-130.464,-2122.87,-128.635
1.62,457.816,235.707,71.4463,53.8614,-135.92,-272.796,-128.837
1.64,457.175,234.914,72.4664,51.0078,-142.68,-338.028,-129.056
1.66,456.566,234.166,73.4308,48.2202,-139.378,165.142,-129.297
1.68,455.99,233.465,74.3383,45.3729,-142.367,-149.462,-129.55
1.7,455.447,232.81,75.1894,42.5569,-140.8,78.3272,-129.809
1.72,454.933,232.195,75.9904,40.0479,-125.451,767.486,-130.07
1.74,454.467,231.645,76.7115,36.0531,-199.74,-3714.48,-130.328
1.76,454.037,231.14,77.3749,33.171,-144.103,2781.88,-130.578
1.78,453.634,230.671,77.9926,30.8851,-114.294,1490.44,-130.822
1.8,453.256,230.235,78.5702,28.8833,-100.091,710.152,-131.068
1.82,452.884,229.81,79.1345,28.2141,-33.4635,3331.37,-131.315
1.84,452.507,229.382,79.7054,28.5436,16.4762,2496.98,-131.585
1.86,452.125,228.955,80.2782,28.6399,4.81604,-583.008,-131.863
1.88,451.739,228.524,80.8567,28.924,14.2037,469.384,-132.163
1.9,451.347,228.096,81.4368,29.0051,4.05632,-507.369,-132.47
1.92,450.951,227.664,82.0231,29.3162,15.5529,574.828,-132.801
1.94,450.549,227.233,82.6123,29.4624,7.31323,-411.983,-133.141
1.96,450.14,226.799,83.2086,29.8113,17.4414,506.411,-133.508
1.98,449.727,226.366,83.8068,29.9122,5.04586,-619.779,-133.883
2,449.305,225.931,84.4131,30.3138,20.0795,751.682,-134.289
2.02,448.879,225.496,85.0217,30.4298,5.80032,-713.959,-134.704
2.04,448.443,225.059,85.6392,30.8736,22.1929,819.63,-135.153
2.06,448.002,224.624,86.2593,31.0051,6.57492,-780.9,-135.612
2.08,447.55,224.184,86.8898,31.5267,26.0775,975.129,-136.108
2.1,447.091,223.747,87.5231,31.6662,6.97714,-955.018,-136.617
2.12,446.622,223.307,88.1666,32.1724,25.3105,916.666,-137.167
2.14,446.144,222.869,88.8144,32.3899,10.8715,-721.947,-137.73
2.16,445.655,222.428,89.4733,32.9447,27.7399,843.421,-138.34
2.18,445.156,221.99,90.1376,33.2149,13.5123,-711.382,-138.964
2.2,444.643,221.547,90.8147,33.8591,32.2089,934.831,-139.644
2.22,444.12,221.108,91.4973,34.1292,13.5059,-935.151,-140.34
2.24,443.576,220.663,92.201,35.1837,52.7259,1961,-141.117
2.26,443.021,220.221,92.9106,35.4782,14.722,-1900.2,-141.919
2.28,442.454,219.784,93.6259,35.7694,14.56,-8.09689,-142.74
2.3,441.882,219.354,94.3414,35.7722,0.143368,-720.833,-143.566
2.32,441.278,218.914,95.0891,37.383,80.5407,4019.87,-144.508
2.34,440.659,218.48,95.8447,37.7843,20.0641,-3023.83,-145.486
2.36,440.024,218.051,96.6118,38.3545,28.5075,422.169,-146.507
2.38,439.377,217.63,97.3829,38.5524,9.89718,-930.514,-147.542
2.4,438.698,217.207,98.1829,40.0009,72.4233,3126.31,-148.688
2.42,438.003,216.793,98.992,40.4546,22.6853,-2486.9,-149.867
2.44,437.281,216.383,99.8228,41.5398,54.2586,1578.67,-151.133
2.46,436.542,215.986,100.661,41.9265,19.3367,-1746.1,-152.427
2.48,435.775,215.596,101.522,43.0205,54.7004,1768.18,-153.802
2.5,434.993,215.222,102.389,43.3414,16.0461,-1932.71,-155.203
2.52,434.168,214.853,103.292,45.1879,92.3228,3813.83,-156.747
2.54,433.322,214.503,104.208,45.7885,30.0306,-3114.61,-158.334
2.56,432.451,214.171,105.14,46.5733,39.2384,460.392,-159.983
2.58,431.567,213.862,106.077,46.8633,14.5026,-1236.79,-161.652
2.6,430.64,213.57,107.048,48.5624,84.9556,3522.65,-163.452
2.62,429.695,213.305,108.03,49.09,26.3773,-2928.91,-165.294
2.64,428.721,213.066,109.033,50.1351,52.2585,1294.06,-167.212
2.66,427.735,212.859,110.041,50.406,13.5423,-1935.81,-169.154
2.68,426.728,212.684,111.063,51.0992,34.6623,1056,-171.15
2.7,425.71,212.544,112.09,51.3807,14.0748,-1029.38,-173.163
2.72,424.671,212.438,113.134,52.18,39.961,1294.31,-175.241
2.74,423.624,212.37,114.183,52.4756,14.7803,-1259.04,-177.34
2.76,422.576,212.34,115.232,52.4463,-1.46426,-812.226,-179.436
2.78,421.527,212.349,116.281,52.4494,0.154862,80.9559,178.467
2.8,420.48,212.396,117.329,52.3962,-2.65897,-140.692,176.372
2.82,419.435,212.482,118.377,52.3931,-0.15376,125.261,174.278
2.84,418.413,212.603,119.407,51.4779,-45.7586,-2280.24,172.257
2.86,417.402,212.758,120.429,51.1299,-17.3999,1417.93,170.26
2.88,416.413,212.947,121.437,50.3761,-37.6943,-1014.72,168.321
2.9,415.434,213.167,122.44,50.1438,-11.6151,1303.96,166.401
2.92,414.482,213.414,123.424,49.2089,-46.7431,-1756.4,164.552
2.94,413.544,213.69,124.401,48.8673,-17.0774,1483.28,162.726
2.96,412.65,213.984,125.343,47.0694,-89.895,-3640.88,161.041
2.98,411.775,214.299,126.272,46.4699,-29.9781,2995.85,159.4
3,410.924,214.633,127.187,45.7399,-36.4993,-326.058,157.818
3.02,410.087,214.989,128.096,45.4467,-14.6611,1091.91,156.256
3.04,409.294,215.35,128.967,43.5878,-92.9424,-3914.06,154.832
3.06,408.519,215.727,129.829,43.0998,-24.3996,3427.14,153.451
3.08,407.773,216.111,130.669,41.9562,-57.1839,-1639.22,152.154
3.1,407.041,216.51,131.502,41.6661,-14.5032,2134.03,150.882
3.12,406.337,216.911,132.312,40.5043,-58.0879,-2179.23,149.697
3.14,405.648,217.324,133.115,40.1755,-16.4411,2082.34,148.538
3.16,404.991,217.736,133.891,38.7839,-69.579,-2656.9,147.487
3.18,404.349,218.154,134.657,38.288,-24.7959,2239.15,146.469
3.2,403.724,218.578,135.412,37.7411,-27.3451,-127.458,145.497
3.22,403.109,219.008,136.163,37.5504,-9.53593,890.458,144.54
3.24,402.525,219.431,136.884,36.0403,-75.5045,-3298.43,143.693
3.26,401.954,219.858,137.597,35.6821,-17.9119,2879.63,142.88
3.28,401.394,220.289,138.304,35.3199,-18.106,-9.70501,142.091
3.3,400.841,220.726,139.008,35.2114,-5.42808,633.898,141.31
3.32,400.31,221.157,139.692,34.2299,-49.0738,-2182.29,140.604
3.34,399.787,221.592,140.372,33.9716,-12.914,1807.99,139.921
3.36,399.283,222.022,141.035,33.1631,-40.4285,-1375.72,139.295
3.38,398.785,222.454,141.694,32.9443,-10.9374,1474.55,138.687
3.4,398.302,222.885,142.341,32.3686,-28.7871,-892.486,138.127
3.42,397.825,223.316,142.984,32.1404,-11.4088,868.915,137.581
3.44,397.361,223.744,143.615,31.5647,-28.7834,-868.732,137.078
3.46,396.903,224.173,144.244,31.4104,-7.715,1053.42,136.589
3.48,396.456,224.601,144.862,30.9054,-25.2514,-876.82,136.138
3.5,396.014,225.029,145.477,30.7817,-6.18696,953.223,135.699
3.52,395.582,225.453,146.082,30.237,-27.2319,-1052.25,135.296
3.54,395.156,225.878,146.685,30.1275,-5.4755,1087.82,134.904
3.56,394.738,226.301,147.279,29.7313,-19.8119,-716.82,134.545
3.58,394.325,226.723,147.87,29.5309,-10.0203,489.581,134.196
3.6,393.919,227.143,148.454,29.2109,-15.9997,-298.97,133.877
3.62,393.517,227.563,149.035,29.0252,-9.28531,335.719,133.567
3.64,393.123,227.981,149.609,28.7329,-14.6116,-266.314,133.285
3.66,392.732,228.397,150.18,28.5335,-9.97402,231.878,133.013
3.68,392.348,228.811,150.745,28.2477,-14.2894,-215.77,132.766
3.7,391.968,229.225,151.307,28.0988,-7.44305,342.319,132.528
3.72,391.593,229.634,151.862,27.756,-17.138,-484.748,132.319
3.74,391.222,230.043,152.414,27.5947,-8.0671,453.545,132.12
3.76,390.857,230.449,152.96,27.2877,-15.348,-364.047,131.945
3.78,390.494,230.853,153.503,27.183,-5.23583,505.611,131.778
3.8,390.137,231.254,154.04,26.8526,-16.522,-564.306,131.634
3.82,389.781,231.656,154.577,26.8357,-0.842248,783.985,131.497
3.84,389.431,232.053,155.107,26.4885,-17.3637,-826.073,131.384
3.86,389.082,232.449,155.634,26.3769,-5.57997,589.187,131.277
3.88,388.739,232.842,156.156,26.0673,-15.4778,-494.89,131.194
3.9,388.396,233.234,156.676,26.0264,-2.04446,671.666,131.117
3.92,388.055,233.626,157.196,26.0002,-1.30899,36.7736,131.042
3.94,387.714,234.017,157.715,25.9543,-2.29686,-49.3935,130.968
3.96,387.35,234.438,158.271,27.7919,91.8798,4708.83,130.754
3.98,386.98,234.869,158.839,28.3979,30.2998,-3079,130.497
4,386.621,235.292,159.394,27.7626,-31.7626,-3103.12,130.284
4.02,386.264,235.714,159.947,27.6306,-6.6003,1258.11,130.084
4.04,385.916,236.13,160.489,27.1202,-25.5239,-946.182,129.921
4.06,385.57,236.545,161.029,26.9956,-6.22985,964.704,129.768
4.08,385.235,236.949,161.554,26.2559,-36.9814,-1537.58,129.672
4.1,384.903,237.35,162.075,26.0203,-11.7809,1260.02,129.594
4.12,384.578,237.745,162.587,25.595,-21.2635,-474.13,129.549
4.14,384.254,238.138,163.096,25.4772,-5.89046,768.653,129.513
4.16,383.935,238.525,163.598,25.0845,-19.6349,-687.224,129.507
4.18,383.617,238.911,164.098,24.9798,-5.23599,719.948,129.509
4.2,383.306,239.287,164.586,24.4046,-28.763,-1176.35,129.552
4.22,382.997,239.662,165.072,24.3048,-4.98885,1188.71,129.608
4.24,382.693,240.029,165.549,23.8343,-23.5245,-926.783,129.697
4.26,382.39,240.393,166.022,23.6649,-8.46901,752.775,129.796
4.28,382.091,240.752,166.489,23.3696,-14.7634,-314.722,129.92
4.3,381.791,241.11,166.956,23.316,-2.68371,603.987,130.053
4.32,381.496,241.46,167.413,22.886,-21.4986,-940.744,130.213
4.34,381.202,241.807,167.869,22.7754,-5.53125,798.367,130.381
4.36,380.911,242.148,168.317,22.4213,-17.7048,-608.678,130.581
4.38,380.622,242.485,168.761,22.1882,-11.6537,302.558,130.793
4.4,380.334,242.817,169.201,21.9865,-10.0842,78.4713,131.025
4.42,380.046,243.147,169.638,21.8769,-5.48078,230.172,131.265
4.44,379.76,243.472,170.071,21.6252,-12.5846,-355.193,131.521
4.46,379.474,243.793,170.501,21.5381,-4.35751,411.357,131.783
4.48,379.188,244.112,170.93,21.4234,-5.73094,-68.6712,132.056
4.5,378.9,244.429,171.358,21.4009,-1.12617,230.238,132.333
4.52,378.612,244.744,171.785,21.3289,-3.60219,-123.801,132.615
4.54,378.323,245.057,172.21,21.2891,-1.98745,80.7368,132.897
4.56,378.031,245.369,172.638,21.3835,4.72058,335.402,133.174
4.58,377.737,245.681,173.066,21.4206,1.8532,-143.369,133.448
4.6,377.439,245.994,173.499,21.631,10.5221,433.443,133.703
4.62,377.137,246.308,173.935,21.7771,7.30162,-161.022,133.952
4.64,376.829,246.627,174.378,22.1894,20.6164,665.741,134.164
4.66,376.517,246.947,174.825,22.3541,8.23371,-619.137,134.366
4.68,376.194,247.276,175.286,23.0166,33.1274,1244.69,134.52
4.7,375.869,247.606,175.749,23.1643,7.38143,-1287.3,134.66
4.72,375.532,247.945,176.227,23.91,37.2864,1495.25,134.743
4.74,375.192,248.288,176.71,24.1456,11.7809,-1275.27,134.808
4.76,374.839,248.641,177.209,24.957,40.5689,1439.4,134.811
4.78,374.484,249,177.714,25.219,13.1,-1373.45,134.794
4.8,374.117,249.37,178.235,26.0567,41.8879,1439.4,134.713
4.82,373.747,249.743,178.761,26.3054,12.4354,-1472.63,134.613
4.84,373.367,250.129,179.302,27.0651,37.9809,1277.28,134.455
4.86,372.985,250.52,179.849,27.3501,14.2519,-1186.45,134.278
4.88,372.595,250.92,180.408,27.9217,28.5801,716.41,134.052
4.9,372.205,251.326,180.971,28.1551,11.6713,-845.441,133.811
4.92,371.808,251.74,181.544,28.677,26.0924,721.056,133.533
4.94,371.413,252.159,182.12,28.767,4.49958,-1079.64,133.243
4.96,371.015,252.584,182.702,29.1328,18.2906,689.551,132.928
4.98,370.617,253.013,183.287,29.2425,5.48586,-640.237,132.605
5,370.221,253.447,183.875,29.4109,8.41999,146.707,132.267
5.02,369.826,253.884,184.465,29.457,2.30365,-305.817,131.926
5.04,369.433,254.325,185.055,29.53,3.65253,67.4442,131.58
5.06,369.041,254.768,185.646,29.5646,1.72888,-96.1823,131.232
5.08,368.654,255.213,186.236,29.4886,-3.80062,-276.475,130.888
5.1,368.27,255.66,186.826,29.4726,-0.798773,150.092,130.546
5.12,367.89,256.107,187.412,29.3265,-7.30397,-325.26,130.216
5.14,367.513,256.555,187.998,29.286,-2.02828,263.784,129.89
5.16,367.141,257.002,188.579,29.0638,-11.1098,-454.075,129.579
5.18,366.773,257.45,189.159,28.9929,-3.54599,378.19,129.272
5.2,366.41,257.897,189.735,28.8107,-9.10696,-278.049,128.98
5.22,366.049,258.346,190.311,28.7785,-1.61048,374.824,128.694
5.24,365.693,258.791,190.881,28.5063,-13.6119,-600.07,128.427
5.26,365.341,259.237,191.449,28.3868,-5.97422,381.882,128.165
5.28,364.996,259.679,192.01,28.068,-15.9366,-498.118,127.931
5.3,364.652,260.121,192.569,27.972,-4.80115,556.772,127.705
5.32,364.314,260.561,193.124,27.7413,-11.5363,-336.759,127.498
5.34,363.979,261,193.677,27.6151,-6.31228,261.202,127.296
5.36,363.647,261.436,194.225,27.4061,-10.4473,-206.75,127.113
5.38,363.318,261.872,194.771,27.3201,-4.29987,307.37,126.935
5.4,362.996,262.304,195.309,26.9081,-20.5987,-814.944,126.79
5.42,362.676,262.732,195.844,26.7372,-8.548,602.537,126.655
5.44,362.363,263.155,196.37,26.3195,-20.8835,-616.776,126.542
5.46,362.052,263.575,196.893,26.1151,-10.2203,533.163,126.437
5.48,361.78,263.944,197.352,22.9418,-158.663,-7422.14,126.359
5.5,361.523,264.296,197.787,21.7814,-58.0229,5032.01,126.291
5.52,361.318,264.573,198.132,17.2188,-228.128,-8505.25,126.243
5.54,361.215,264.715,198.308,8.80482,-420.7,-9628.62,126.232
5.56,361.11,264.857,198.484,8.83436,1.47686,21108.9,126.221
5.58,361.006,265,198.66,8.79173,-2.13135,-180.41,126.211
5.6,360.903,265.142,198.836,8.80482,0.6545,139.292,126.2
5.62,360.799,265.283,199.012,8.76446,-2.01807,-133.628,126.189
