"time","x","y","position","velocity","acceleration","jerk","heading"
0,387.119,271.487,0,0,0,0,-19.8
0.02,387.281,271.428,0.172171,8.60856,430.428,21521.4,-19.8045
0.04,387.443,271.371,0.343979,8.59036,-0.909927,-21566.9,-19.8091
0.06,387.605,271.312,0.51615,8.60856,0.909926,90.9926,-19.8136
0.08,387.766,271.253,0.688295,8.60725,-0.0654501,-48.7688,-19.8182
0.1,387.928,271.196,0.860128,8.59167,-0.779023,-35.6787,-19.8227
0.12,388.142,271.118,1.08693,11.34,137.418,6909.83,-19.83
0.14,388.53,270.978,1.50042,20.6748,466.737,16466,-19.8467
0.16,388.92,270.837,1.91486,20.7218,2.35157,-23219.3,-19.8634
0.18,389.403,270.663,2.42812,25.663,247.063,12235.6,-19.9014
0.2,389.906,270.482,2.96241,26.7145,52.5739,-9724.45,-19.9436
0.22,390.454,270.282,3.5462,29.1895,123.751,3558.83,-20.0059
0.24,391.002,270.082,4.1291,29.1451,-2.22028,-6298.54,-20.0729
0.26,391.546,269.883,4.70871,28.9804,-8.23851,-300.912,-20.1489
0.28,392.087,269.684,5.28455,28.7921,-9.41474,-58.8117,-20.2406
0.3,392.625,269.485,5.85872,28.7086,-4.17508,261.983,-20.34
0.32,393.161,269.286,6.43018,28.573,-6.77669,-130.08,-20.4475
0.34,393.694,269.087,6.99977,28.4792,-4.68999,104.335,-20.5635
0.36,394.224,268.888,7.56518,28.2703,-10.4459,-287.795,-20.6968
0.38,394.75,268.688,8.12857,28.1698,-5.02335,271.127,-20.8369
0.4,395.276,268.487,8.69138,28.1405,-1.46698,177.819,-20.9806
0.42,395.796,268.287,9.24846,27.8539,-14.3293,-643.118,-21.1418
0.44,396.315,268.085,9.80524,27.8387,-0.75875,678.53,-21.3091
0.46,396.829,267.885,10.3573,27.6027,-11.8035,-552.236,-21.4887
0.48,397.342,267.682,10.9088,27.5764,-1.31246,524.551,-21.6745
0.5,397.854,267.477,11.4603,27.5728,-0.180615,56.5922,-21.8634
0.52,398.358,267.274,12.0033,27.1491,-21.1844,-1050.19,-22.079
0.54,398.861,267.07,12.5462,27.1474,-0.087779,1054.83,-22.2976
0.56,399.36,266.863,13.0869,27.0371,-5.51247,-271.235,-22.5219
0.58,399.857,266.656,13.625,26.9027,-6.72226,-60.4897,-22.7594
0.6,400.351,266.448,14.1612,26.8088,-4.69247,101.49,-23.0035
0.62,400.84,266.239,14.6932,26.6015,-10.3666,-283.708,-23.2644
0.64,401.328,266.028,15.2241,26.5466,-2.74438,381.112,-23.529
0.66,401.812,265.816,15.7526,26.4219,-6.23681,-174.621,-23.8007
0.68,402.291,265.603,16.2772,26.2318,-9.50225,-163.272,-24.09
0.7,402.767,265.389,16.7989,26.0851,-7.33539,108.343,-24.3882
0.72,403.24,265.173,17.3188,25.9953,-4.4927,142.135,-24.6961
0.74,403.709,264.956,17.836,25.8612,-6.70426,-110.578,-25.0105
0.76,404.175,264.737,18.3502,25.7078,-7.66929,-48.2514,-25.338
0.78,404.636,264.517,18.8615,25.5644,-7.16995,24.9668,-25.6779
0.8,405.095,264.295,19.3711,25.4797,-4.23287,146.854,-26.024
0.82,405.549,264.072,19.877,25.295,-9.2385,-250.281,-26.3807
0.84,406,263.846,20.3818,25.2434,-2.57775,333.037,-26.7464
0.86,406.446,263.62,20.8811,24.9648,-13.9314,-567.68,-27.13
0.88,406.888,263.391,21.3788,24.8824,-4.11901,490.617,-27.5218
0.9,407.327,263.161,21.875,24.8094,-3.64809,23.5464,-27.9177
0.92,407.761,262.929,22.3667,24.5844,-11.2518,-380.184,-28.3294
0.94,408.191,262.695,22.8569,24.5115,-3.64299,380.439,-28.749
0.96,408.617,262.46,23.3427,24.2905,-11.0526,-370.483,-29.1843
0.98,409.039,262.222,23.8271,24.2216,-3.44387,380.439,-29.6275
1,409.457,261.981,24.3099,24.1379,-4.18623,-37.1181,-30.0747
1.02,409.869,261.741,24.7872,23.8647,-13.6588,-473.626,-30.5419
1.04,410.279,261.498,25.2636,23.819,-2.28449,568.713,-31.0157
1.06,410.683,261.253,25.7361,23.6272,-9.59293,-365.422,-31.5022
1.08,411.083,261.005,26.2065,23.5213,-5.29477,214.908,-31.997
1.1,411.48,260.755,26.6764,23.4914,-1.49447,190.015,-32.4957
1.12,411.87,260.503,27.1396,23.1639,-16.3749,-744.023,-33.0168
1.14,412.257,260.25,27.602,23.1197,-2.2105,708.222,-33.5432
1.16,412.639,259.994,28.0619,22.9926,-6.35351,-207.151,-34.0803
1.18,413.016,259.737,28.5185,22.8316,-8.05045,-84.8471,-34.6256
1.2,413.39,259.476,28.9745,22.7977,-1.69234,317.906,-35.1749
1.22,413.757,259.215,29.4251,22.5324,-13.2666,-578.714,-35.7461
1.24,414.12,258.95,29.8743,22.4572,-3.75978,475.342,-36.3218
1.26,414.479,258.684,30.3215,22.3614,-4.79002,-51.5119,-36.9069
1.28,414.834,258.415,30.7666,22.2535,-5.39801,-30.3995,-37.4995
1.3,415.184,258.142,31.2105,22.196,-2.87113,126.344,-38.096
1.32,415.528,257.87,31.6488,21.9133,-14.1359,-563.24,-38.7115
1.34,415.868,257.595,32.0866,21.8925,-1.04231,654.681,-39.331
1.36,416.204,257.316,32.5224,21.7916,-5.04222,-199.996,-39.9585
1.38,416.535,257.037,32.956,21.6802,-5.56939,-26.3584,-40.5926
1.4,416.863,256.753,33.3896,21.68,-0.0104135,277.949,-41.23
1.42,417.184,256.468,33.819,21.4682,-10.5909,-529.025,-41.8818
1.44,417.501,256.18,34.2471,21.4058,-3.11841,373.625,-42.5369
1.46,417.814,255.889,34.6746,21.3738,-1.60243,75.7988,-43.1987
1.48,418.123,255.596,35.0999,21.2657,-5.40519,-190.138,-43.8653
1.5,418.427,255.301,35.5245,21.2272,-1.9251,174.004,-44.5343
1.52,418.726,255.003,35.9466,21.1065,-6.0363,-205.56,-45.2123
1.54,419.021,254.701,36.3689,21.1146,0.408336,322.232,-45.8925
1.56,419.313,254.397,36.79,21.0574,-2.85911,-163.372,-46.5774
1.58,419.6,254.091,37.2094,20.9668,-4.53038,-83.5633,-47.2647
1.6,419.883,253.781,37.6293,20.9964,1.4785,300.444,-47.9534
1.62,420.161,253.468,38.048,20.9339,-3.12498,-230.174,-48.6457
1.64,420.436,253.152,38.4669,20.9459,0.60113,186.305,-49.3388
1.66,420.707,252.834,38.8845,20.8825,-3.17362,-188.737,-50.0334
1.68,420.974,252.511,39.3036,20.9531,3.53313,335.337,-50.7279
1.7,421.236,252.186,39.7206,20.8478,-5.26399,-439.856,-51.4224
1.72,421.495,251.857,40.1399,20.9669,5.95091,560.745,-52.1162
1.74,421.75,251.525,40.5584,20.9243,-2.12577,-403.834,-52.8089
1.76,422.001,251.189,40.9777,20.9667,2.11605,212.091,-53.499
1.78,422.249,250.851,41.3975,20.9868,1.00608,-55.4983,-54.1862
1.8,422.493,250.508,41.8181,21.031,2.21149,60.2703,-54.8721
1.82,422.734,250.161,42.2403,21.1109,3.99548,89.1995,-55.5534
1.84,422.971,249.813,42.6618,21.0731,-1.88944,-294.246,-56.2319
1.86,423.204,249.459,43.0855,21.1851,5.59668,374.306,-56.905
1.88,423.434,249.1,43.5114,21.2987,5.68276,4.30391,-57.5718
1.9,423.661,248.74,43.9376,21.3063,0.376262,-265.325,-58.2354
1.92,423.884,248.374,44.366,21.423,5.83584,272.979,-58.891
1.94,424.104,248.005,44.7957,21.4851,3.10712,-136.436,-59.5431
1.96,424.32,247.633,45.2259,21.5109,1.28841,-90.9353,-60.1882
1.98,424.533,247.254,45.6602,21.7123,10.0711,439.135,-60.8231
2,424.744,246.874,46.0951,21.7445,1.61097,-423.007,-61.4529
2.02,424.951,246.488,46.5334,21.9167,8.61087,349.995,-62.072
2.04,425.154,246.099,46.9716,21.9117,-0.252631,-443.175,-62.6875
2.06,425.354,245.706,47.4126,22.05,6.91804,358.533,-63.2955
2.08,425.552,245.308,47.8568,22.2077,7.88371,48.2837,-63.8897
2.1,425.746,244.906,48.3037,22.347,6.96424,-45.9738,-64.4769
2.12,425.938,244.5,48.7527,22.4467,4.98659,-98.8821,-65.0517
2.14,426.125,244.09,49.2038,22.5539,5.3599,18.6655,-65.6225
2.16,426.31,243.677,49.6558,22.6037,2.48714,-143.638,-66.1851
2.18,426.493,243.258,50.1134,22.8793,13.7831,564.797,-66.7329
2.2,426.672,242.836,50.5715,22.9024,1.1524,-631.534,-67.2734
2.22,426.848,242.409,51.0333,23.0918,9.47167,415.964,-67.7991
2.24,427.021,241.979,51.4971,23.1926,5.03972,-221.598,-68.3205
2.26,427.191,241.545,51.9633,23.3072,5.72946,34.487,-68.8332
2.28,427.367,241.084,52.4568,24.6744,68.3576,3131.4,-69.3566
2.3,427.547,240.599,52.974,25.8603,59.2948,-453.137,-69.8913
2.32,427.745,240.052,53.5557,29.0855,161.264,5098.46,-70.4713
2.34,427.953,239.454,54.1883,31.6306,127.252,-1700.62,-71.0846
2.36,428.17,238.808,54.8701,34.0876,122.853,-219.946,-71.7201
2.38,428.397,238.107,55.6069,36.8419,137.716,743.163,-72.3748
2.4,428.633,237.351,56.3989,39.599,137.852,6.79267,-73.0502
2.42,428.875,236.537,57.2481,42.4608,143.092,262.023,-73.7402
2.44,429.123,235.663,58.1563,45.4125,147.584,224.593,-74.4327
2.46,429.377,234.732,59.1222,48.2906,143.905,-183.941,-75.1339
2.48,429.634,233.738,60.1478,51.2846,149.699,289.703,-75.8279
2.5,429.894,232.681,61.2366,54.4364,157.588,394.455,-76.5154
2.52,430.156,231.556,62.392,57.7725,166.807,460.923,-77.1932
2.54,430.419,230.368,63.6085,60.8259,152.672,-706.751,-77.8475
2.56,430.682,229.111,64.8928,64.2151,169.459,839.337,-78.4832
2.58,430.944,227.785,66.2445,67.5816,168.324,-56.743,-79.087
2.6,431.206,226.392,67.6622,70.8881,165.327,-149.848,-79.6566
2.62,431.461,224.955,69.1216,72.9687,104.029,-3064.87,-80.1844
2.64,431.707,223.495,70.6016,73.9983,51.4799,-2627.48,-80.6439
2.66,431.943,222.023,72.0934,74.5925,29.7079,-1088.6,-81.0581
2.68,432.173,220.532,73.6013,75.3926,40.0084,515.025,-81.409
2.7,432.397,219.027,75.1233,76.0996,35.3477,-233.034,-81.7083
2.72,432.614,217.508,76.6572,76.6974,29.89,-272.888,-81.9613
2.74,432.828,215.973,78.207,77.4902,39.6392,487.461,-82.15
2.76,433.039,214.426,79.7692,78.1107,31.0251,-430.704,-82.2973
2.78,433.249,212.865,81.3442,78.7503,31.98,47.7433,-82.3899
2.8,433.459,211.289,82.9336,79.4699,35.9801,200.006,-82.4303
2.82,433.669,209.702,84.5341,80.0209,27.5527,-421.37,-82.4281
2.84,433.883,208.1,86.1503,80.813,39.602,602.467,-82.3664
2.86,434.1,206.487,87.7783,81.3995,29.3263,-513.789,-82.2604
2.88,434.323,204.862,89.4189,82.0303,31.5385,110.612,-82.105
2.9,434.553,203.222,91.075,82.8039,38.6812,357.134,-81.8926
2.92,434.792,201.572,92.7415,83.3249,26.0525,-631.436,-81.6366
2.94,435.041,199.908,94.4242,84.1372,40.6114,727.946,-81.323
2.96,435.301,198.233,96.1197,84.7751,31.8974,-435.7,-80.9583
2.98,435.576,196.546,97.8284,85.4343,32.9607,53.1659,-80.5423
3,435.866,194.846,99.5529,86.2223,39.4005,321.99,-80.0661
3.02,436.173,193.136,101.291,86.8938,33.5753,-291.259,-79.5403
3.04,436.5,191.413,103.045,87.6941,40.0113,321.797,-78.9525
3.06,436.848,189.679,104.813,88.4198,36.2889,-186.117,-78.3067
3.08,437.221,187.934,106.597,89.2078,39.4004,155.572,-77.6042
3.1,437.618,186.176,108.399,90.1104,45.13,286.484,-76.8334
3.12,438.045,184.411,110.215,90.7858,33.7698,-568.013,-76.0087
3.14,438.502,182.635,112.05,91.7204,46.7261,647.817,-75.1107
3.16,438.992,180.85,113.9,92.538,40.8831,-292.149,-74.1536
3.18,439.518,179.057,115.769,93.4503,45.6151,236.6,-73.1282
3.2,440.082,177.257,117.655,94.3065,42.8079,-140.363,-72.033
3.22,440.687,175.454,119.557,95.0955,39.4484,-167.971,-70.879
3.24,441.337,173.643,121.481,96.1626,53.3572,695.44,-69.6451
3.26,442.03,171.835,123.418,96.8626,35.0004,-917.843,-68.3573
3.28,442.773,170.024,125.375,97.8402,48.8813,694.044,-66.993
3.3,443.566,168.219,127.346,98.5704,36.5085,-618.638,-65.5739
3.32,444.411,166.419,129.335,99.4549,44.2257,385.86,-64.09
3.34,445.31,164.63,131.337,100.095,32.0051,-611.033,-62.5519
3.36,446.264,162.853,133.354,100.842,37.3546,267.479,-60.961
3.38,447.274,161.094,135.383,101.431,29.4632,-394.573,-59.3258
3.4,448.339,159.355,137.421,101.938,25.3145,-207.432,-57.6491
3.42,449.46,157.643,139.468,102.324,19.2928,-301.087,-55.944
3.44,450.635,155.96,141.521,102.641,15.8966,-169.807,-54.2116
3.46,451.863,154.31,143.577,102.847,10.2531,-282.179,-52.467
3.48,453.142,152.696,145.636,102.932,4.28391,-298.457,-50.7157
3.5,454.469,151.125,147.693,102.851,-4.04387,-416.389,-48.9679
3.52,455.84,149.596,149.747,102.683,-8.40818,-218.216,-47.2339
3.54,457.253,148.113,151.795,102.415,-13.4118,-250.182,-45.5212
3.56,458.704,146.679,153.836,102.024,-19.5273,-305.773,-43.8394
3.58,460.189,145.293,155.867,101.547,-23.8674,-217.004,-42.1949
3.6,461.703,143.959,157.884,100.873,-33.7119,-492.227,-40.597
3.62,463.244,142.675,159.89,100.299,-28.6922,250.987,-39.0475
3.64,464.806,141.442,161.88,99.4988,-40.0058,-565.684,-37.5574
3.66,466.386,140.258,163.855,98.7295,-38.4659,76.9959,-36.1273
3.68,467.981,139.122,165.813,97.9132,-40.8171,-117.557,-34.7576
3.7,469.587,138.035,167.752,96.9443,-48.4417,-381.231,-33.4634
3.72,471.204,136.993,169.676,96.2123,-36.6021,591.98,-32.2257
3.74,472.823,135.995,171.578,95.0972,-55.7522,-957.505,-31.0711
3.76,474.448,135.037,173.464,94.3087,-39.425,816.359,-29.9778
3.78,476.071,134.12,175.328,93.2007,-55.4014,-798.821,-28.9587
3.8,477.66,133.259,177.135,90.3622,-141.926,-4326.24,-28.0342
3.82,479.19,132.459,178.862,86.3246,-201.882,-2997.8,-27.1989
3.84,480.654,131.719,180.502,82.0046,-215.999,-705.857,-26.4638
3.86,482.053,131.032,182.06,77.9202,-204.219,589.012,-25.8085
3.88,483.391,130.394,183.543,74.1265,-189.682,726.84,-25.2285
3.9,484.657,129.805,184.939,69.823,-215.178,-1274.78,-24.7221
3.92,485.86,129.257,186.261,66.0812,-187.091,1404.34,-24.2823
3.94,486.998,128.748,187.508,62.3762,-185.248,92.14,-23.8977
3.96,488.074,128.275,188.683,58.725,-182.561,134.338,-23.5675
3.98,489.085,127.837,189.785,55.1137,-180.561,100.025,-23.2818
4,490.031,127.433,190.814,51.4165,-184.864,-215.149,-23.0433
4.02,490.915,127.059,191.774,48.0319,-169.228,781.817,-22.8367
4.04,491.736,126.715,192.664,44.5034,-176.427,-359.949,-22.6675
4.06,492.498,126.398,193.489,41.2559,-162.372,702.732,-22.5313
4.08,493.205,126.105,194.255,38.2579,-149.905,623.364,-22.412
4.1,493.83,125.848,194.93,33.7658,-224.603,-3734.94,-22.3265
4.12,494.411,125.61,195.558,31.4187,-117.353,5362.54,-22.2543
4.14,494.928,125.399,196.117,27.9397,-173.95,-2829.89,-22.1996
4.16,495.381,125.215,196.605,24.4239,-175.793,-92.1089,-22.1567
4.18,495.776,125.053,197.032,21.3273,-154.83,1048.12,-22.1241
4.2,496.138,124.908,197.422,19.513,-90.716,3205.7,-22.0953
4.22,496.299,124.841,197.597,8.73506,-538.895,-22408.9,-22.0891
4.24,496.462,124.775,197.772,8.76246,1.3701,27013.2,-22.0829
4.26,496.623,124.71,197.947,8.71612,-2.31718,-184.364,-22.0767
4.28,496.786,124.644,198.122,8.76246,2.31718,231.718,-22.0705
4.3,496.947,124.579,198.296,8.71612,-2.31718,-231.718,-22.0643
