"time","x","y","position","velocity","acceleration","jerk","heading"
0,504.182,310.734,0,0,0,0,-180
0.02,504.007,310.734,0.174785,8.73927,436.963,21848.2,-179.997
0.04,503.833,310.734,0.348833,8.70236,-1.8455,-21940.4,-179.993
0.06,503.659,310.734,0.522618,8.68927,-0.654498,59.5502,-179.99
0.08,503.485,310.734,0.696665,8.70236,0.654498,65.4498,-179.986
0.1,503.312,310.734,0.870451,8.68927,-0.654498,-65.4498,-179.983
0.12,503.08,310.734,1.10154,11.5547,143.272,7196.35,-179.975
0.14,502.657,310.734,1.52504,21.1749,481.008,16886.8,-179.954
0.16,502.233,310.734,1.9488,21.188,0.654494,-24017.7,-179.932
0.18,501.698,310.733,2.48354,26.7367,277.438,13839.2,-179.891
0.2,501.142,310.732,3.04032,27.8391,55.1179,-11116,-179.846
0.22,500.476,310.73,3.70643,33.3057,273.331,10910.7,-179.773
0.24,499.767,310.727,4.41522,35.4392,106.672,-8332.99,-179.686
0.26,499.001,310.722,5.18098,38.2884,142.461,1789.49,-179.58
0.28,498.179,310.714,6.0031,41.1056,140.861,-79.9991,-179.446
0.3,497.341,310.706,6.84145,41.9179,40.6123,-5012.45,-179.292
0.32,496.496,310.694,7.6863,42.2422,16.2153,-1219.85,-179.121
0.34,495.647,310.679,8.53564,42.467,11.2436,-248.585,-178.933
0.36,494.793,310.662,9.38947,42.6914,11.2202,-1.17113,-178.728
0.38,493.934,310.642,10.2491,42.9827,14.563,167.138,-178.501
0.4,493.07,310.617,11.1129,43.1867,10.1989,-218.204,-178.255
0.42,492.201,310.589,11.9821,43.4638,13.855,182.806,-177.992
0.44,491.329,310.556,12.855,43.6433,8.97799,-243.851,-177.712
0.46,490.451,310.519,13.7337,43.9369,14.6789,285.043,-177.414
0.48,489.567,310.477,14.6192,44.2756,16.9327,112.694,-177.087
0.5,488.682,310.429,15.5048,44.2776,0.099913,-841.641,-176.757
0.52,487.792,310.376,16.3971,44.6136,16.803,835.155,-176.406
0.54,486.897,310.317,17.2934,44.8181,10.2233,-328.985,-176.037
0.56,486.002,310.252,18.1912,44.8878,3.48525,-336.903,-175.664
0.58,485.099,310.181,19.0969,45.2863,19.9253,822.002,-175.262
0.6,484.196,310.103,20.0032,45.3136,1.36367,-928.081,-174.856
0.62,483.292,310.018,20.9115,45.417,5.17251,190.442,-174.44
0.64,482.385,309.926,21.8224,45.5426,6.27726,55.2377,-174.017
0.66,481.479,309.828,22.734,45.5817,1.9586,-215.933,-173.593
0.68,480.574,309.723,23.6451,45.555,-1.33661,-164.76,-173.166
0.7,479.672,309.612,24.5543,45.4598,-4.76295,-171.317,-172.749
0.72,478.772,309.494,25.462,45.3826,-3.85848,45.2233,-172.337
0.74,477.876,309.37,26.3667,45.2394,-7.15719,-164.935,-171.939
0.76,476.988,309.241,27.2637,44.8455,-19.6987,-627.074,-171.57
0.78,476.108,309.107,28.1536,44.4953,-17.508,109.535,-171.223
0.8,475.236,308.971,29.0367,44.1564,-16.9478,28.0062,-170.908
0.82,474.376,308.83,29.9074,43.5343,-31.1041,-707.813,-170.636
0.84,473.528,308.688,30.7681,43.0352,-24.9559,307.408,-170.404
0.86,472.687,308.544,31.6212,42.6544,-19.0382,295.887,-170.203
0.88,471.866,308.402,32.4542,41.6535,-50.0466,-1550.42,-170.076
0.9,471.059,308.259,33.2738,40.9769,-33.8259,811.035,-170.002
0.92,470.261,308.117,34.0841,40.5144,-23.1261,534.988,-169.964
0.94,469.478,307.978,34.8798,39.7845,-36.4953,-668.458,-169.978
0.96,468.711,307.844,35.6578,38.9001,-44.222,-386.336,-170.062
0.98,467.955,307.711,36.4255,38.3896,-25.5254,934.831,-170.185
1,467.209,307.583,37.1827,37.8588,-26.5362,-50.5412,-170.351
1.02,466.475,307.459,37.9274,37.2315,-31.3672,-241.551,-170.563
1.04,465.749,307.34,38.6622,36.7406,-24.5453,341.098,-170.81
1.06,465.028,307.224,39.3924,36.5121,-11.4222,656.155,-171.077
1.08,464.318,307.115,40.1111,35.9336,-28.9277,-875.273,-171.389
1.1,463.612,307.011,40.8248,35.6868,-12.3391,829.427,-171.717
1.12,462.909,306.91,41.5353,35.5243,-8.1268,210.617,-172.059
1.14,462.209,306.815,42.2417,35.3196,-10.2357,-105.445,-172.414
1.16,461.51,306.723,42.9469,35.2613,-2.91381,366.095,-172.779
1.18,460.812,306.637,43.6501,35.158,-5.16541,-112.58,-173.149
1.2,460.115,306.555,44.3519,35.0888,-3.45617,85.4621,-173.522
1.22,459.416,306.479,45.0547,35.1414,2.62652,304.135,-173.896
1.24,458.717,306.406,45.7571,35.1228,-0.930372,-177.845,-174.266
1.26,458.015,306.338,46.4623,35.2577,6.74738,383.888,-174.631
1.28,457.314,306.275,47.1662,35.1977,-2.99875,-487.307,-174.995
1.3,456.609,306.215,47.8737,35.374,8.81445,590.66,-175.348
1.32,455.901,306.16,48.5838,35.5042,6.50912,-115.266,-175.693
1.34,455.191,306.108,49.2957,35.5939,4.48616,-101.148,-176.03
1.36,454.479,306.061,50.0096,35.6944,5.02319,26.8512,-176.358
1.38,453.763,306.018,50.727,35.8725,8.90556,194.119,-176.675
1.4,453.045,305.977,51.4464,35.971,4.9222,-199.168,-176.98
1.42,452.323,305.941,52.1692,36.1385,8.37695,172.738,-177.275
1.44,451.597,305.908,52.8954,36.3098,8.56738,9.52139,-177.56
1.46,450.87,305.879,53.6231,36.3823,3.62235,-247.251,-177.835
1.48,450.14,305.854,54.3537,36.5319,7.47877,192.821,-178.098
1.5,449.406,305.831,55.0884,36.7339,10.1041,131.267,-178.349
1.52,448.669,305.811,55.8253,36.846,5.60311,-225.05,-178.591
1.54,447.93,305.795,56.565,36.9863,7.01669,70.6793,-178.822
1.56,447.189,305.781,57.306,37.0511,3.23626,-189.022,-179.044
1.58,446.444,305.77,58.0512,37.2556,10.227,349.536,-179.254
1.6,445.696,305.761,58.7994,37.4107,7.75554,-123.572,-179.452
1.62,444.945,305.756,59.5499,37.5271,5.82018,-96.768,-179.641
1.64,444.192,305.752,60.3033,37.6705,7.16822,67.4019,-179.819
1.66,443.436,305.751,61.0591,37.7878,5.86705,-65.0585,-179.988
1.68,442.686,305.752,61.8093,37.5129,-13.7445,-980.575,179.822
1.7,441.936,305.756,62.5588,37.4741,-1.94005,590.22,179.629
1.72,441.183,305.762,63.312,37.6584,9.21456,557.731,179.45
1.74,440.427,305.771,64.0683,37.8165,7.90394,-65.5308,179.283
1.76,439.67,305.781,64.8255,37.857,2.02599,-293.898,179.119
1.78,438.906,305.794,65.5894,38.1989,17.0919,753.298,178.981
1.8,438.142,305.809,66.3537,38.2147,0.790456,-815.074,178.844
1.82,437.373,305.825,67.1228,38.4513,11.8325,552.101,178.725
1.84,436.601,305.843,67.8945,38.5857,6.7183,-255.709,178.62
1.86,435.827,305.862,68.6685,38.7035,5.89056,-41.3869,178.52
1.88,435.045,305.884,69.4508,39.1119,20.4207,726.506,178.451
1.9,434.261,305.905,70.2351,39.2166,5.23596,-759.236,178.39
1.92,433.473,305.928,71.024,39.4429,11.3158,303.991,178.35
1.94,432.678,305.951,71.8191,39.7547,15.5889,213.657,178.33
1.96,431.878,305.975,72.6192,40.0049,12.5089,-154.003,178.329
1.98,431.073,305.998,73.4248,40.2807,13.7901,64.0606,178.353
2,430.258,306.021,74.2406,40.7888,25.4064,580.816,178.412
2.02,429.437,306.044,75.0615,41.0492,13.0197,-619.336,178.491
2.04,428.61,306.065,75.8891,41.3762,16.35,166.517,178.599
2.06,427.769,306.084,76.7304,42.0664,34.5087,907.933,178.756
2.08,426.919,306.101,77.5798,42.4689,20.1254,-719.163,178.944
2.1,426.061,306.116,78.4388,42.9514,24.1226,199.859,179.169
2.12,425.188,306.127,79.3114,43.629,33.8839,488.066,179.446
2.14,424.303,306.134,80.196,44.2292,30.0068,-193.855,179.769
2.16,423.41,306.135,81.0894,44.6731,22.1982,-390.431,-179.874
2.18,422.502,306.13,81.9976,45.4066,36.6751,723.844,-179.461
2.2,421.577,306.118,82.9228,46.2608,42.7062,301.556,-178.983
2.22,420.642,306.098,83.8578,46.7527,24.5971,-905.457,-178.464
2.24,419.697,306.068,84.8035,47.2844,26.5861,99.4496,-177.909
2.26,418.742,306.029,85.7587,47.7595,23.7518,-141.715,-177.315
2.28,417.771,305.977,86.7311,48.6183,42.9421,959.518,-176.657
2.3,416.817,305.916,87.6873,47.811,-40.3651,-4165.36,-175.99
2.32,415.906,305.847,88.6006,45.6641,-107.346,-3349.04,-175.34
2.34,415.044,305.772,89.4664,43.2902,-118.694,-567.417,-174.713
2.36,414.276,305.698,90.2378,38.5694,-236.04,-5867.29,-174.142
2.38,413.577,305.622,90.9407,35.145,-171.218,3241.11,-173.624
2.4,412.941,305.549,91.5806,31.9975,-157.375,692.127,-173.152
2.42,412.407,305.482,92.1194,26.9386,-252.945,-4778.5,-172.757
2.44,411.942,305.422,92.5878,23.4226,-175.799,3857.33,-172.416
2.46,411.478,305.359,93.0568,23.4489,1.31356,8855.62,-172.074
2.48,411.107,305.306,93.4308,18.6978,-237.555,-11943.4,-171.807
2.5,410.742,305.253,93.8,18.4606,-11.8617,11284.7,-171.543
2.52,410.378,305.198,94.1682,18.4127,-2.39336,473.417,-171.28
2.54,410.015,305.141,94.535,18.3388,-3.69466,-65.0654,-171.027
2.56,409.656,305.083,94.8995,18.2265,-5.61356,-95.945,-170.78
2.58,409.296,305.025,95.2638,18.2135,-0.654583,247.949,-170.534
2.6,408.937,304.964,95.6276,18.1905,-1.14655,-24.5986,-170.291
2.62,408.582,304.902,95.9884,18.0404,-7.50423,-317.884,-170.057
2.64,408.226,304.839,96.35,18.0766,1.80806,465.615,-169.824
2.66,407.871,304.774,96.7111,18.0581,-0.923475,-136.577,-169.59
2.68,407.518,304.708,97.0696,17.9232,-6.7452,-291.086,-169.367
2.7,407.167,304.642,97.4267,17.8572,-3.30276,172.122,-169.146
2.72,406.815,304.574,97.7853,17.9288,3.58077,344.176,-168.924
2.74,406.469,304.505,98.1387,17.6668,-13.101,-834.091,-168.719
2.76,406.125,304.436,98.4896,17.5456,-6.0571,352.197,-168.524
2.78,405.781,304.365,98.8406,17.5525,0.344948,320.102,-168.33
2.8,405.438,304.294,99.1909,17.5133,-1.96316,-115.405,-168.139
2.82,405.098,304.222,99.538,17.3568,-7.82459,-293.071,-167.957
2.84,404.758,304.149,99.8863,17.4161,2.96584,539.521,-167.775
2.86,404.418,304.075,100.234,17.3778,-1.91478,-244.031,-167.593
2.88,404.082,304,100.578,17.1922,-9.28,-368.261,-167.426
2.9,403.748,303.925,100.921,17.1543,-1.89336,369.332,-167.259
2.92,403.412,303.848,101.265,17.2011,2.33757,211.547,-167.093
2.94,403.082,303.772,101.604,16.9691,-11.5999,-696.871,-166.941
2.96,402.753,303.696,101.941,16.8625,-5.32738,313.624,-166.798
2.98,402.425,303.618,102.279,16.8609,-0.083527,262.192,-166.656
3,402.097,303.54,102.616,16.8463,-0.730183,-32.3328,-166.516
3.02,401.772,303.46,102.951,16.7664,-3.99485,-163.234,-166.383
3.04,401.447,303.381,103.285,16.7178,-2.42884,78.3008,-166.25
3.06,401.122,303.302,103.62,16.7309,0.654374,154.161,-166.116
3.08,400.802,303.222,103.95,16.4931,-11.8891,-627.176,-166.002
3.1,400.482,303.141,104.28,16.4931,0.000199279,594.467,-165.888
3.12,400.162,303.061,104.609,16.48,-0.654566,-32.7383,-165.775
3.14,399.844,302.98,104.937,16.4006,-3.9692,-165.732,-165.669
3.16,399.527,302.899,105.264,16.3607,-1.998,98.5597,-165.567
3.18,399.212,302.817,105.59,16.2992,-3.07508,-53.854,-165.466
3.2,398.897,302.735,105.916,16.2725,-1.33372,87.0681,-165.368
3.22,398.583,302.652,106.24,16.2292,-2.16281,-41.4543,-165.277
3.24,398.27,302.57,106.564,16.1678,-3.07314,-45.5167,-165.187
3.26,397.957,302.487,106.888,16.1936,1.29222,218.268,-165.096
3.28,397.649,302.404,107.207,15.9619,-11.5861,-643.917,-165.02
3.3,397.34,302.322,107.526,15.9711,0.459507,602.282,-164.946
3.32,397.031,302.238,107.847,16.0101,1.95316,74.6828,-164.871
3.34,396.724,302.155,108.165,15.9095,-5.0305,-349.183,-164.799
3.36,396.416,302.071,108.484,15.9578,2.41266,372.158,-164.728
3.38,396.109,301.987,108.802,15.8965,-3.06631,-273.949,-164.658
3.4,395.804,301.903,109.119,15.8574,-1.95497,55.5673,-164.592
3.42,395.5,301.819,109.434,15.7354,-6.09873,-207.188,-164.539
3.44,395.198,301.735,109.747,15.6872,-2.40969,184.452,-164.486
3.46,394.895,301.652,110.061,15.7003,0.654476,153.208,-164.432
3.48,394.593,301.567,110.375,15.6744,-1.29266,-97.3569,-164.381
3.5,394.292,301.482,110.688,15.6394,-1.75243,-22.9886,-164.329
3.52,393.99,301.398,111.001,15.6744,1.75245,175.244,-164.278
3.54,393.691,301.313,111.313,15.5833,-4.55747,-315.496,-164.235
3.56,393.392,301.229,111.623,15.5042,-3.95106,30.3202,-164.197
3.58,393.094,301.144,111.932,15.4697,-1.72616,111.245,-164.159
3.6,392.796,301.06,112.243,15.5178,2.40477,206.546,-164.121
3.62,392.499,300.975,112.551,15.4305,-4.36824,-338.651,-164.086
3.64,392.201,300.89,112.861,15.5054,3.74547,405.686,-164.05
3.66,391.904,300.805,113.17,15.4305,-3.74549,-374.548,-164.015
3.68,391.609,300.72,113.478,15.3745,-2.79947,47.3013,-163.989
3.7,391.314,300.635,113.784,15.3133,-3.05705,-12.8793,-163.964
3.72,391.02,300.55,114.09,15.3264,0.654503,185.578,-163.938
3.74,390.726,300.466,114.396,15.2871,-1.96349,-130.9,-163.915
3.76,390.431,300.381,114.703,15.3352,2.40254,218.302,-163.892
3.78,390.137,300.295,115.009,15.3011,-1.70642,-205.448,-163.869
3.8,389.844,300.211,115.314,15.2479,-2.65962,-47.6595,-163.849
3.82,389.553,300.127,115.617,15.1693,-3.92699,-63.3688,-163.835
3.84,389.261,300.042,115.921,15.1963,1.35065,263.882,-163.82
3.86,388.97,299.957,116.225,15.1833,-0.654494,-100.257,-163.806
3.88,388.679,299.873,116.528,15.1432,-2.00516,-67.5335,-163.794
3.9,388.387,299.788,116.831,15.192,2.442,222.358,-163.783
3.92,388.096,299.703,117.135,15.1571,-1.74583,-209.392,-163.771
3.94,387.895,299.645,117.343,10.4425,-235.727,-11699.1,-163.765
3.96,387.751,299.603,117.494,7.52618,-145.818,4495.45,-163.763
3.98,387.606,299.56,117.645,7.53927,0.654498,7323.63,-163.76
4,387.462,299.518,117.795,7.52618,-0.654498,-65.4498,-163.758
4.02,387.317,299.476,117.946,7.52618,1.43904e-08,32.7249,-163.756
4.04,387.172,299.434,118.097,7.53927,0.654498,32.7249,-163.753
4.06,387.028,299.392,118.247,7.52618,-0.654498,-65.4498,-163.751
