"time","x","y","position","velocity","acceleration","jerk","heading"
0,514.143,288.193,0,0,150,0,-180
0.02,513.97,288.193,0.173205,3,150,0,-179.991
0.04,513.797,288.193,0.34641,6,150,0,-179.982
0.06,513.624,288.193,0.519615,9,150,0,-179.973
0.08,513.45,288.193,0.69282,12,150,0,-179.964
0.1,513.277,288.193,0.866025,15,150,0,-179.955
0.12,513.049,288.193,1.09471,18,150,0,-179.935
0.14,512.63,288.192,1.51286,21,150,0,-179.879
0.16,512.212,288.191,1.93102,24,150,0,-179.823
0.18,511.688,288.189,2.45505,27,150,0,-179.716
0.2,511.143,288.186,3,30,150,0,-179.599
0.22,510.497,288.181,3.64641,33,150,0,-179.411
0.24,509.811,288.173,4.33237,36,150,0,-179.187
0.26,509.07,288.161,5.07309,39,150,0,-178.912
0.28,508.259,288.143,5.88465,42,150,0,-178.557
0.3,507.387,288.118,6.75708,45,150,0,-178.119
0.32,506.458,288.083,7.68717,48,150,0,-177.591
0.34,505.469,288.037,8.67644,51,150,0,-176.968
0.36,504.422,287.975,9.72525,54,150,0,-176.242
0.38,503.317,287.895,10.8333,57,150,0,-175.404
0.4,502.155,287.792,12,60,7.32669e-06,0,-174.449
0.42,500.962,287.665,13.2,60,0,0,-173.381
0.44,499.771,287.515,14.4,60,0,0,-172.237
0.46,498.584,287.341,15.6,60,0,0,-171.026
0.48,497.401,287.141,16.8,60,0,0,-169.756
0.5,496.222,286.914,18,60,0,0,-168.435
0.52,495.05,286.66,19.2,60,0,0,-167.06
0.54,493.884,286.377,20.4,60,0,0,-165.647
0.56,492.725,286.065,21.6,60,0,0,-164.2
0.58,491.575,285.723,22.8,60,0,0,-162.728
0.6,490.433,285.352,24,60,0,0,-161.24
0.62,489.302,284.951,25.2,60,0,0,-159.741
0.64,488.182,284.521,26.4,60,0,0,-158.241
0.66,487.074,284.062,27.6,60,0,0,-156.746
0.68,485.977,283.574,28.8,60,0,0,-155.263
0.7,484.894,283.058,30,60,0,0,-153.799
0.72,483.824,282.514,31.2,60,0,0,-152.361
0.74,482.768,281.944,32.4,60,0,0,-150.95
0.76,481.726,281.349,33.6,60,0,0,-149.571
0.78,480.699,280.729,34.8,60,0,0,-148.229
0.8,479.686,280.086,36,60,0,0,-146.929
0.82,478.688,279.42,37.2,60,0,0,-145.673
0.84,477.704,278.732,38.4,60,0,0,-144.459
0.86,476.735,278.025,39.6,60,0,0,-143.287
0.88,475.78,277.298,40.8,60,0,0,-142.165
0.9,474.84,276.553,42,60,0,0,-141.087
0.92,473.913,275.79,43.2,60,0,0,-140.058
0.94,473,275.012,44.4,60,0,0,-139.072
0.96,472.1,274.218,45.6,60,0,0,-138.135
0.98,471.213,273.41,46.8,60,0,0,-137.241
1,470.338,272.589,48,60,0,0,-136.385
1.02,469.475,271.755,49.2,60,0,0,-135.579
1.04,468.624,270.909,50.4,60,0,0,-134.818
1.06,467.783,270.052,51.6,60,0,0,-134.092
1.08,466.954,269.185,52.8,60,0,0,-133.403
1.1,466.134,268.309,54,60,0,0,-132.758
1.12,465.324,267.423,55.2,60,0,0,-132.152
1.14,464.524,266.529,56.4,60,0,0,-131.578
1.16,463.732,265.628,57.6,60,0,0,-131.043
1.18,462.948,264.719,58.8,60,0,0,-130.543
1.2,462.172,263.804,60,60,0,0,-130.07
1.22,461.403,262.883,61.2,60,0,0,-129.64
1.24,460.641,261.956,62.4,60,0,0,-129.241
1.26,459.885,261.024,63.6,60,0,0,-128.868
1.28,459.135,260.087,64.8,60,0,0,-128.531
1.3,458.39,259.147,66,60,0,0,-128.225
1.32,457.65,258.202,67.2,60,0,0,-127.949
1.34,456.914,257.254,68.4,60,0,0,-127.705
1.36,456.182,256.303,69.6,60,0,0,-127.492
1.38,455.453,255.35,70.8,60,0,0,-127.305
1.4,454.727,254.394,72,60,0,0,-127.152
1.42,454.004,253.437,73.2,60,0,0,-127.034
1.44,453.282,252.478,74.4,60,0,0,-126.943
1.46,452.561,251.519,75.6,60,0,0,-126.886
1.48,451.841,250.559,76.8,60,0,0,-126.864
1.5,451.121,249.599,78,60,-1.72006e-05,0,-126.871
1.52,450.402,248.64,79.199,59.875,-59.8823,0,-126.916
1.54,449.69,247.694,80.3821,58.3849,-150,0,-127.002
1.56,449.005,246.787,81.519,55.3849,-150,0,-127.116
1.58,448.355,245.928,82.5962,52.3849,-150,0,-127.254
1.6,447.738,245.12,83.6133,49.3849,-150,0,-127.42
1.62,447.156,244.361,84.5697,46.3849,-150,0,-127.608
1.64,446.608,243.652,85.4659,43.3849,-150,0,-127.81
1.66,446.093,242.991,86.3035,40.3849,-150,0,-128.02
1.68,445.61,242.375,87.0866,37.3849,-150,0,-128.238
1.7,445.167,241.816,87.7995,34.3849,-150,0,-128.461
1.72,444.763,241.309,88.4475,31.3849,-150,0,-128.684
1.74,444.381,240.833,89.0582,28.3849,-150,0,-128.907
1.76,444.056,240.432,89.5745,25.3849,-150,0,-129.114
1.78,443.745,240.05,90.0667,22.3849,-139.991,0,-129.315
1.8,443.504,239.757,90.4459,19.3849,-83.1215,0,-129.485
1.82,443.263,239.465,90.825,16.3849,-26.2522,0,-129.655
1.84,443.048,239.206,91.1615,15,0,0,-129.813
1.86,442.855,238.976,91.4615,15,0,0,-129.962
1.88,442.662,238.746,91.7615,15,0,0,-130.112
1.9,442.469,238.517,92.0615,15,0,0,-130.264
1.92,442.275,238.288,92.3615,15,0,0,-130.429
1.94,442.08,238.06,92.6615,15,0,0,-130.595
1.96,441.884,237.832,92.9615,15,0,0,-130.76
1.98,441.688,237.606,93.2615,15,0,0,-130.943
2,441.491,237.379,93.5615,15,0,0,-131.128
2.02,441.294,237.154,93.8615,15,0,0,-131.312
2.04,441.095,236.929,94.1615,15,0,0,-131.509
2.06,440.896,236.704,94.4615,15,0,0,-131.716
2.08,440.696,236.481,94.7615,15,0,0,-131.922
2.1,440.495,236.258,95.0615,15,0,0,-132.133
2.12,440.294,236.036,95.3615,15,0,0,-132.362
2.14,440.091,235.814,95.6615,15,0,0,-132.59
2.16,439.888,235.594,95.9615,15,0,0,-132.819
2.18,439.683,235.374,96.2615,15,0,0,-133.068
2.2,439.478,235.155,96.5615,15,0,0,-133.321
2.22,439.272,234.937,96.8615,15,0,0,-133.574
2.24,439.065,234.72,97.1615,15,0,0,-133.841
2.26,438.856,234.504,97.4615,15,0,0,-134.121
2.28,438.647,234.29,97.7615,15,0,0,-134.4
2.3,438.437,234.076,98.0615,15,0,0,-134.686
2.32,438.225,233.863,98.3615,15,0,0,-134.996
2.34,438.013,233.651,98.6615,15,0,0,-135.306
2.36,437.799,233.441,98.9615,15,0,0,-135.615
2.38,437.584,233.231,99.2615,15,0,0,-135.954
2.4,437.368,233.023,99.5615,15,0,0,-136.298
2.42,437.15,232.817,99.8615,15,0,0,-136.641
2.44,436.932,232.611,100.162,15,0,0,-137.005
2.46,436.712,232.407,100.462,15,0,0,-137.386
2.48,436.49,232.205,100.762,15,0,0,-137.767
2.5,436.268,232.004,101.062,15,0,0,-138.158
2.52,436.044,231.804,101.362,15,0,0,-138.591
2.54,435.818,231.606,101.662,15,0,0,-139.024
2.56,435.591,231.41,101.962,15,0,0,-139.457
2.58,435.363,231.216,102.262,15,0,0,-139.926
2.6,435.132,231.024,102.562,15,0,0,-140.399
2.62,434.901,230.833,102.862,15,0,0,-140.873
2.64,434.667,230.645,103.162,15,0,0,-141.373
2.66,434.432,230.458,103.462,15,0,0,-141.896
2.68,434.196,230.273,103.762,15,0,0,-142.419
2.7,433.958,230.091,104.062,15,0,0,-142.953
2.72,433.717,229.911,104.362,15,0,0,-143.533
2.74,433.475,229.734,104.662,15,0,0,-144.113
2.76,433.232,229.559,104.962,15,0,0,-144.693
2.78,432.986,229.387,105.262,15,0,0,-145.338
2.8,432.739,229.217,105.562,15,0,0,-145.992
2.82,432.489,229.05,105.862,15,0,0,-146.646
2.84,432.238,228.886,106.162,15,0,0,-147.327
2.86,431.985,228.726,106.462,15,0,0,-148.029
2.88,431.73,228.568,106.762,15,0,0,-148.732
2.9,431.472,228.414,107.062,15,0,0,-149.458
2.92,431.213,228.263,107.362,15,0,0,-150.275
2.94,430.952,228.115,107.662,15,0,0,-151.092
2.96,430.688,227.972,107.962,15,0,0,-151.908
2.98,430.423,227.832,108.262,15,0,0,-152.762
3,430.155,227.696,108.562,15,0,0,-153.621
3.02,429.886,227.564,108.862,15,0,0,-154.481
3.04,429.614,227.437,109.162,15,0,0,-155.406
3.06,429.341,227.314,109.462,15,0,0,-156.389
3.08,429.065,227.196,109.762,15,0,0,-157.371
3.1,428.787,227.083,110.062,15,0,0,-158.368
3.12,428.508,226.974,110.362,15,0,0,-159.42
3.14,428.226,226.871,110.662,15,0,0,-160.472
3.16,427.942,226.772,110.962,15,0,0,-161.524
3.18,427.657,226.68,111.262,15,0,0,-162.634
3.2,427.37,226.593,111.562,15,0,0,-163.752
3.22,427.081,226.511,111.862,15,0,0,-164.87
3.24,426.791,226.436,112.162,15,0,0,-166.043
3.26,426.499,226.366,112.462,15,0,0,-167.265
3.28,426.206,226.303,112.762,15,0,0,-168.486
3.3,425.911,226.246,113.062,15,0,0,-169.714
3.32,425.616,226.195,113.362,15,0,0,-170.968
3.34,425.319,226.151,113.662,15,0,0,-172.222
3.36,425.021,226.114,113.962,15,0,0,-173.476
3.38,424.723,226.083,114.262,15,0,0,-174.763
3.4,424.424,226.059,114.562,15,0,0,-176.055
3.42,424.124,226.041,114.862,15,0,0,-177.347
3.44,423.825,226.031,115.162,15,0,0,-178.641
3.46,423.525,226.027,115.462,15,0,0,-179.938
3.48,423.225,226.03,115.762,15,0,0,178.765
3.5,422.925,226.04,116.062,15,0,0,177.473
3.52,422.625,226.057,116.362,15,0,0,176.196
3.54,422.326,226.08,116.662,15,0,0,174.92
3.56,422.028,226.11,116.962,15,0,0,173.644
3.58,421.73,226.147,117.262,15,0,0,172.397
3.6,421.433,226.19,117.562,15,0,0,171.154
3.62,421.137,226.24,117.862,15,0,0,169.911
3.64,420.843,226.296,118.162,15,0,0,168.716
3.66,420.549,226.358,118.462,15,0,0,167.562
3.68,420.257,226.426,118.762,15,0,0,166.407
3.7,419.966,226.499,119.062,15,0,0,165.264
3.72,419.677,226.579,119.362,15,0,0,164.162
3.74,419.389,226.664,119.662,15,0,0,163.061
3.76,419.103,226.755,119.962,15,0,0,161.959
3.78,418.819,226.851,120.262,15,0,0,160.941
3.8,418.536,226.951,120.562,15,0,0,159.934
3.82,418.256,227.057,120.862,15,0,0,158.927
3.84,417.977,227.168,121.162,15,0,0,157.971
3.86,417.7,227.283,121.462,15,0,0,157.06
3.88,417.425,227.403,121.762,15,0,0,156.148
3.9,417.152,227.527,122.062,15,0,0,155.246
3.92,416.88,227.655,122.362,15,0,0,154.383
3.94,416.611,227.787,122.662,15,0,0,153.519
3.96,416.344,227.923,122.962,15,0,0,152.656
3.98,416.078,228.063,123.262,15,0,0,151.91
4,415.815,228.206,123.562,15,0,0,151.182
4.02,415.553,228.353,123.862,15,0,0,150.454
4.04,415.293,228.503,124.162,15,0,0,149.741
4.06,415.035,228.656,124.462,15,0,0,149.042
4.08,414.779,228.812,124.762,15,0,0,148.343
4.1,414.525,228.972,125.062,15,0,0,147.664
4.12,414.272,229.134,125.362,15,0,0,147.067
4.14,414.022,229.298,125.662,15,0,0,146.469
4.16,413.773,229.466,125.962,15,0,0,145.871
4.18,413.525,229.636,126.262,15,0,0,145.306
4.2,413.28,229.808,126.562,15,0,0,144.746
4.22,413.036,229.983,126.862,15,0,0,144.186
4.24,412.794,230.16,127.162,15,0,0,143.665
4.26,412.553,230.339,127.462,15,0,0,143.178
4.28,412.314,230.52,127.762,15,0,0,142.69
4.3,412.076,230.703,128.062,15,0,0,142.209
4.32,411.84,230.888,128.362,15,0,0,141.75
4.34,411.605,231.075,128.662,15,0,0,141.291
4.36,411.372,231.264,128.962,15,0,0,140.832
4.38,411.141,231.454,129.262,15,0,0,140.426
4.4,410.91,231.646,129.562,15,0,0,140.027
4.42,410.681,231.84,129.862,15,0,0,139.628
4.44,410.453,232.035,130.162,15,0,0,139.252
4.46,410.227,232.232,130.462,15,0,0,138.894
4.48,410.001,232.43,130.762,15,0,0,138.536
4.5,409.777,232.629,131.062,15,0,0,138.185
4.52,409.554,232.83,131.362,15,0,0,137.864
4.54,409.332,233.032,131.662,15,0,0,137.543
4.56,409.112,233.235,131.962,15,0,0,137.222
4.58,408.892,233.44,132.262,15,0,0,136.929
4.6,408.674,233.645,132.562,15,0,0,136.641
4.62,408.456,233.852,132.862,15,0,0,136.353
4.64,408.24,234.059,133.162,15,0,0,136.081
4.66,408.024,234.268,133.462,15,0,0,135.823
4.68,407.809,234.478,133.762,15,0,0,135.565
4.7,407.596,234.688,134.062,15,0,0,135.312
4.72,407.383,234.9,134.362,15,0,0,135.082
4.74,407.171,235.112,134.662,15,0,0,134.851
4.76,406.96,235.325,134.962,15,0,0,134.621
4.78,406.749,235.539,135.262,15,0,0,134.413
4.8,406.54,235.754,135.562,15,0,0,134.209
4.82,406.331,235.969,135.862,15,0,0,134.006
4.84,406.123,236.185,136.162,15,0,0,133.815
4.86,405.916,236.402,136.462,15,0,0,133.637
4.88,405.709,236.62,136.762,15,0,0,133.458
4.9,405.503,236.838,137.062,15,0,0,133.284
4.92,405.298,237.056,137.362,15,0,0,133.128
4.94,405.093,237.276,137.662,15,0,0,132.971
4.96,404.889,237.496,137.962,15,0,0,132.814
4.98,404.685,237.716,138.262,15,0,0,132.676
5,404.482,237.937,138.562,15,0,0,132.54
5.02,404.28,238.158,138.862,15,0,0,132.403
5.04,404.078,238.38,139.162,15,0,0,132.278
5.06,403.876,238.602,139.462,15,0,0,132.162
5.08,403.675,238.825,139.762,15,0,0,132.045
5.1,403.475,239.048,140.062,15,0,0,131.933
5.12,403.274,239.271,140.362,15,0,0,131.835
5.14,403.075,239.495,140.662,15,0,0,131.738
5.16,402.875,239.719,140.962,15,0,0,131.64
5.18,402.676,239.944,141.262,15,0,0,131.559
5.2,402.477,240.168,141.562,15,0,0,131.48
5.22,402.279,240.393,141.862,15,0,0,131.401
5.24,402.081,240.618,142.162,15,0,0,131.332
5.26,401.883,240.844,142.462,15,0,0,131.271
5.28,401.685,241.069,142.762,15,0,0,131.211
5.3,401.487,241.295,143.062,15,0,0,131.155
5.32,401.29,241.521,143.362,15,0,0,131.116
5.34,401.093,241.747,143.662,15,0,0,131.078
5.36,400.896,241.973,143.962,15,0,0,131.039
5.38,400.699,242.2,144.262,15,0,0,130.892
5.4,400.503,242.427,144.562,15,0,0,130.729
5.42,400.307,242.655,144.862,15,0,0,130.566
5.44,400.113,242.883,145.162,15,0,0,130.394
5.46,399.919,243.112,145.462,15,0,0,130.215
5.48,399.726,243.341,145.762,15,0,0,130.035
5.5,399.533,243.571,146.062,15,0,0,129.867
5.52,399.341,243.802,146.362,15,0,0,129.744
5.54,399.15,244.033,146.662,15,0,0,129.621
5.56,398.959,244.264,146.962,15,0,0,129.497
5.58,398.769,244.496,147.262,15,0,0,129.404
5.6,398.579,244.728,147.562,15,0,0,129.316
5.62,398.389,244.961,147.862,15,0,0,129.227
5.64,398.199,245.193,148.162,15,0,0,129.152
5.66,398.01,245.426,148.462,15,0,0,129.089
5.68,397.821,245.659,148.762,15,0,0,129.025
5.7,397.633,245.892,149.062,15,0,0,128.971
5.72,397.444,246.126,149.362,15,0,0,128.957
5.74,397.256,246.359,149.662,15,0,0,128.942
5.76,397.067,246.593,149.962,15,0,0,128.928
5.78,396.879,246.826,150.262,15,0,0,128.933
5.8,396.69,247.06,150.562,15,0,0,128.94
5.82,396.502,247.293,150.862,15,0,0,128.948
5.84,396.313,247.526,151.162,15,0,0,128.968
5.86,396.125,247.76,151.462,15,0,0,129
5.88,395.936,247.993,151.762,15,0,0,129.031
5.9,395.747,248.226,152.062,15,0,0,129.07
5.92,395.558,248.459,152.362,15,0,0,129.142
5.94,395.369,248.691,152.662,15,0,0,129.215
5.96,395.179,248.924,152.962,15,0,0,129.287
5.98,394.989,249.156,153.262,15,0,0,129.377
6,394.798,249.388,153.562,15,0,0,129.471
6.02,394.608,249.619,153.862,15,0,0,129.564
6.04,394.416,249.85,154.162,15,0,0,129.669
6.06,394.225,250.081,154.462,15,0,0,129.784
6.08,394.033,250.312,154.762,15,0,0,129.9
6.1,393.84,250.542,155.062,15,0,0,130.021
6.12,393.647,250.771,155.362,15,0,0,130.166
6.14,393.453,251,155.662,15,0,0,130.311
6.16,393.259,251.229,155.962,15,0,0,130.456
6.18,393.064,251.457,156.262,15,0,0,130.62
6.2,392.868,251.684,156.562,15,0,0,130.787
6.22,392.672,251.911,156.862,15,0,0,130.955
6.24,392.475,252.138,157.162,15,0,0,131.13
6.26,392.278,252.363,157.462,15,0,0,131.314
6.28,392.079,252.588,157.762,15,0,0,131.497
6.3,391.88,252.813,158.062,15,0,0,131.683
6.32,391.68,253.037,158.362,15,0,0,131.88
6.34,391.48,253.26,158.662,15,0,0,132.077
6.36,391.278,253.482,158.962,15,0,0,132.274
6.38,391.076,253.704,159.262,15,0,0,132.478
6.4,390.873,253.924,159.562,15,0,0,132.684
6.42,390.669,254.145,159.862,15,0,0,132.89
6.44,390.465,254.364,160.162,15,0,0,133.095
6.46,390.259,254.583,160.462,15,0,0,133.3
6.48,390.053,254.801,160.762,15,0,0,133.505
6.5,389.846,255.018,161.062,15,0,0,133.707
6.52,389.639,255.234,161.362,15,0,0,133.9
6.54,389.43,255.45,161.662,15,0,0,134.092
6.56,389.221,255.665,161.962,15,0,0,134.285
6.58,389.011,255.88,162.262,15,0,0,134.459
6.6,388.801,256.093,162.562,15,0,0,134.63
6.62,388.589,256.306,162.862,15,0,0,134.801
6.64,388.378,256.519,163.162,15,0,0,134.954
6.66,388.165,256.731,163.462,15,0,0,135.093
6.68,387.952,256.942,163.762,15,0,0,135.232
6.7,387.739,257.153,164.062,15,0,0,135.362
6.72,387.525,257.364,164.362,15,0,0,135.459
6.74,387.311,257.574,164.662,15,0,0,135.557
6.76,387.097,257.783,164.962,15,0,0,135.654
6.78,386.882,257.993,165.262,15,0,0,135.708
6.8,386.667,258.202,165.562,15,0,0,135.757
6.82,386.452,258.411,165.862,15,0,0,135.805
6.84,386.237,258.62,166.162,15,0,0,135.825
6.86,386.021,258.829,166.462,15,0,0,135.821
6.88,385.806,259.038,166.762,15,0,0,135.816
6.9,385.591,259.247,167.062,15,0,0,135.801
6.92,385.376,259.456,167.362,15,0,0,135.744
6.94,385.161,259.666,167.662,15,0,0,135.687
6.96,384.946,259.875,167.962,15,0,0,135.63
6.98,384.732,260.085,168.262,15,0,0,135.527
7,384.518,260.296,168.562,15,0,0,135.417
7.02,384.304,260.506,168.862,15,0,0,135.307
7.04,384.091,260.717,169.162,15,0,0,135.174
7.06,383.879,260.929,169.462,15,0,0,135.022
7.08,383.667,261.141,169.762,15,0,0,134.87
7.1,383.455,261.354,170.062,15,0,0,134.712
7.12,383.245,261.568,170.362,15,0,0,134.529
7.14,383.034,261.782,170.662,15,0,0,134.347
7.16,382.825,261.997,170.962,15,0,0,134.164
7.18,382.616,262.212,171.262,15,0,0,133.963
7.2,382.408,262.428,171.562,15,0,0,133.759
7.22,382.201,262.645,171.862,15,0,0,133.556
7.24,381.995,262.863,172.162,15,0,0,133.345
7.26,381.789,263.082,172.462,15,0,0,133.128
7.28,381.585,263.301,172.762,15,0,0,132.911
7.3,381.381,263.521,173.062,15,0,0,132.693
7.32,381.178,263.742,173.362,15,0,0,132.47
7.34,380.976,263.964,173.662,15,0,0,132.247
7.36,380.774,264.186,173.962,15,0,0,132.024
7.38,380.574,264.409,174.262,15,0,0,131.802
7.4,380.374,264.633,174.562,15,0,0,131.58
7.42,380.176,264.858,174.862,15,0,0,131.358
7.44,379.978,265.084,175.162,15,0,0,131.14
7.46,379.781,265.31,175.462,15,0,0,130.926
7.48,379.585,265.537,175.762,15,0,0,130.712
7.5,379.39,265.765,176.062,15,0,0,130.5
7.52,379.195,265.993,176.362,15,0,0,130.295
7.54,379.002,266.223,176.662,15,0,0,130.091
7.56,378.809,266.452,176.962,15,0,0,129.886
7.58,378.617,266.683,177.262,15,0,0,129.691
7.6,378.426,266.914,177.562,15,0,0,129.497
7.62,378.236,267.146,177.862,15,0,0,129.303
7.64,378.046,267.379,178.162,15,0,0,129.119
7.66,377.857,267.612,178.462,15,0,0,128.946
7.68,377.669,267.845,178.762,15,0,0,128.772
7.7,377.481,268.079,179.062,15,0,0,128.601
7.72,377.295,268.314,179.362,15,0,0,128.442
7.74,377.109,268.55,179.662,15,0,0,128.284
7.76,376.923,268.785,179.962,15,0,0,128.126
7.78,376.738,269.022,180.262,15,0,0,127.979
7.8,376.554,269.258,180.562,15,0,0,127.833
7.82,376.37,269.496,180.862,15,0,0,127.688
7.84,376.187,269.733,181.162,15,0,0,127.556
7.86,376.005,269.971,181.462,15,0,0,127.434
7.88,375.823,270.21,181.762,15,0,0,127.313
7.9,375.641,270.449,182.062,15,0,0,127.196
7.92,375.46,270.688,182.362,15,0,0,127.092
7.94,375.28,270.927,182.662,15,0,0,126.989
7.96,375.099,271.167,182.962,15,0,0,126.886
7.98,374.92,271.407,183.262,15,0,0,126.794
8,374.74,271.648,183.562,15,0,0,126.704
8.02,374.561,271.889,183.862,15,0,0,126.614
8.04,374.382,272.13,184.162,15,0,0,126.541
8.06,374.204,272.371,184.462,15,0,0,126.483
8.08,374.026,272.612,184.762,15,0,0,126.424
8.1,373.848,272.854,185.062,15,-6.92209,0,126.369
8.12,373.67,273.095,185.362,15,-40.6721,0,126.328
8.14,373.493,273.337,185.662,15,-74.4221,0,126.286
8.16,373.315,273.579,185.962,15,-108.172,0,126.244
8.18,373.215,273.716,186.131,13.0385,-112.5,0,126.23
8.2,373.127,273.837,186.281,10.7885,-112.5,0,126.22
8.22,373.038,273.958,186.431,8.53853,-112.5,0,126.209
8.24,372.95,274.079,186.581,6.28853,-112.5,0,126.199
8.26,372.861,274.2,186.731,4.03853,-112.5,0,126.188
8.28,372.773,274.321,186.881,1.78853,-112.5,0,126.178
