"time","x","y","position","velocity","acceleration","jerk","heading"
0,393.9,278.8,0,0,150,0,-45
0.02,394.022,278.678,0.173205,3,150,0,-45.0008
0.04,394.145,278.555,0.34641,6,150,0,-45.0015
0.06,394.267,278.433,0.519615,9,150,0,-45.0023
0.08,394.39,278.31,0.69282,12,150,0,-45.003
0.1,394.512,278.188,0.866025,15,150,0,-45.0038
0.12,394.674,278.026,1.09471,18,150,0,-45.0052
0.14,394.97,277.73,1.51286,21,150,0,-45.0089
0.16,395.265,277.434,1.93102,24,150,0,-45.0126
0.18,395.636,277.064,2.45505,27,150,0,-45.0193
0.2,396.021,276.678,3,30,150,0,-45.0265
0.22,396.478,276.221,3.64641,33,150,0,-45.0401
0.24,396.962,275.736,4.33237,36,150,0,-45.0559
0.26,397.486,275.211,5.07309,39,150,0,-45.075
0.28,398.059,274.637,5.88465,42,150,0,-45.0989
0.3,398.674,274.018,6.75708,45,150,0,-45.1296
0.32,399.33,273.359,7.68717,48,150,0,-45.1663
0.34,400.028,272.657,8.67644,51,150,0,-45.2089
0.36,400.766,271.913,9.72525,54,150,0,-45.2595
0.38,401.546,271.125,10.8333,57,150,0,-45.3187
0.4,402.366,270.295,12,60,150,0,-45.3859
0.42,403.231,269.417,13.2333,63,150,0,-45.4645
0.44,404.136,268.496,14.5243,66,150,0,-45.5537
0.46,405.079,267.533,15.8718,69,150,0,-45.6527
0.48,406.064,266.523,17.2829,72,150,0,-45.766
0.5,407.088,265.469,18.7525,75,150,0,-45.8907
0.52,408.152,264.369,20.2825,78,150,0,-46.0302
0.54,409.253,263.224,21.8713,81,150,0,-46.1833
0.56,410.395,262.031,23.5227,84,150,0,-46.3525
0.58,411.573,260.792,25.2317,87,150,0,-46.537
0.6,412.787,259.507,27,90,150,0,-46.7375
0.62,414.039,258.171,28.8312,93,150,0,-46.9561
0.64,415.327,256.787,30.7216,96,150,0,-47.1913
0.66,416.649,255.353,32.6717,99,150,0,-47.4443
0.68,418.005,253.87,34.6816,102,150,0,-47.7143
0.7,419.394,252.335,36.7513,105,150,0,-48.0015
0.72,420.814,250.749,38.8807,108,150,0,-48.3044
0.74,422.266,249.11,41.0704,111,150,0,-48.6224
0.76,423.749,247.416,43.3213,114,150,0,-48.953
0.78,425.261,245.67,45.6313,117,150,0,-49.2931
0.8,426.8,243.87,48,120,5.94767e-07,0,-49.6387
0.82,428.349,242.036,50.4,120,0,0,-49.9801
0.84,429.887,240.194,52.8,120,0,0,-50.3071
0.86,431.415,238.343,55.2,120,0,0,-50.6136
0.88,432.933,236.484,57.6,120,0,0,-50.892
0.9,434.443,234.618,60,120,0,0,-51.1346
0.92,435.946,232.747,62.4,120,0,0,-51.3317
0.94,437.442,230.871,64.8,120,0,0,-51.4784
0.96,438.936,228.992,67.2,120,0,0,-51.5649
0.98,440.427,227.112,69.6,120,0,0,-51.584
1,441.919,225.232,72,120,0,0,-51.5318
1.02,443.414,223.354,74.4,120,0,0,-51.3973
1.04,444.914,221.481,76.8,120,0,0,-51.1847
1.06,446.423,219.615,79.2,120,0,0,-50.8908
1.08,447.943,217.757,81.6,120,0,0,-50.5179
1.1,449.476,215.911,84,120,0,0,-50.0729
1.12,451.024,214.077,86.4,120,0,0,-49.5577
1.14,452.59,212.258,88.8,120,0,0,-48.9856
1.16,454.174,210.455,91.2,120,0,0,-48.3644
1.18,455.779,208.671,93.6,120,0,0,-47.7049
1.2,457.405,206.905,96,120,0,0,-47.019
1.22,459.052,205.159,98.4,120,0,0,-46.3157
1.24,460.72,203.434,100.8,120,0,0,-45.6062
1.26,462.41,201.73,103.2,120,0,0,-44.8994
1.28,464.12,200.046,105.6,120,0,0,-44.2028
1.3,465.85,198.383,108,120,-9.66614e-06,0,-43.5223
1.32,467.592,196.748,110.389,118.25,-150,0,-42.8685
1.34,469.312,195.169,112.724,115.25,-150,0,-42.253
1.36,471.004,193.647,115,112.25,-150,0,-41.6795
1.38,472.665,192.183,117.214,109.25,-150,0,-41.1496
1.4,474.293,190.772,119.368,106.25,-150,0,-40.6593
1.42,475.888,189.413,121.463,103.25,-150,0,-40.2098
1.44,477.446,188.105,123.498,100.25,-150,0,-39.7963
1.46,478.968,186.846,125.473,97.25,-150,0,-39.4196
1.48,480.451,185.635,127.388,94.25,-150,0,-39.075
1.5,481.895,184.469,129.243,91.25,-150,0,-38.7624
1.52,483.298,183.348,131.039,88.25,-150,0,-38.4777
1.54,484.658,182.273,132.773,85.25,-150,0,-38.2219
1.56,485.975,181.24,134.447,82.25,-150,0,-37.9905
1.58,487.251,180.247,136.064,79.25,-150,0,-37.7812
1.6,488.48,179.298,137.617,76.25,-150,0,-37.5954
1.62,489.667,178.386,139.113,73.25,-150,0,-37.4269
1.64,490.806,177.517,140.546,70.25,-150,0,-37.2796
1.66,491.903,176.684,141.924,67.25,-150,0,-37.1461
1.68,492.951,175.892,143.236,64.25,-150,0,-37.0305
1.7,493.952,175.139,144.49,61.25,-150,0,-36.9284
1.72,494.908,174.421,145.685,58.25,-150,0,-36.8383
1.74,495.818,173.741,146.821,55.25,-150,0,-36.7607
1.76,496.68,173.097,147.897,52.25,-150,0,-36.6931
1.78,497.495,172.491,148.912,49.25,-150,0,-36.6349
1.8,498.26,171.922,149.866,46.25,-150,0,-36.587
1.82,498.976,171.391,150.758,43.25,-150,0,-36.5461
1.84,499.644,170.897,151.589,40.25,-150,0,-36.5115
1.86,500.266,170.437,152.362,37.25,-150,0,-36.4833
1.88,500.846,170.007,153.084,34.25,-150,0,-36.4604
1.9,501.366,169.623,153.731,31.25,-150,0,-36.4426
1.92,501.839,169.275,154.318,28.25,-150,0,-36.4278
1.94,502.277,168.951,154.863,25.25,-150,0,-36.4153
1.96,502.64,168.684,155.313,22.25,-150,0,-36.4077
1.98,502.976,168.436,155.731,19.25,-150,0,-36.4018
2,503.242,168.239,156.062,16.25,-150,0,-36.3975
2.02,503.382,168.137,156.235,13.25,-150,0,-36.3959
2.04,503.521,168.034,156.408,10.25,-150,0,-36.3943
2.06,503.661,167.931,156.581,7.25,-150,0,-36.3927
2.08,503.8,167.828,156.755,4.25,-150,0,-36.3911
2.1,503.939,167.726,156.928,1.25,-150,0,-36.3895
