"time","x","y","position","velocity","acceleration","jerk","heading"
0,502.206,289.898,0,0,150,0,-180
0.02,502.033,289.898,0.173205,3,150,0,-179.979
0.04,501.86,289.898,0.34641,6,150,0,-179.957
0.06,501.687,289.898,0.519615,9,150,0,-179.936
0.08,501.513,289.898,0.69282,12,150,0,-179.915
0.1,501.34,289.898,0.866025,15,150,0,-179.893
0.12,501.112,289.898,1.09471,18,150,0,-179.854
0.14,500.693,289.897,1.51286,21,150,0,-179.752
0.16,500.275,289.895,1.93102,24,150,0,-179.651
0.18,499.751,289.891,2.45505,27,150,0,-179.469
0.2,499.206,289.886,3,30,150,0,-179.271
0.22,498.56,289.876,3.64641,33,150,0,-178.895
0.24,497.874,289.86,4.33237,36,116.763,0,-178.456
0.26,497.136,289.838,5.0709,38.8199,46.455,0,-177.929
0.28,496.349,289.805,5.8582,39.8199,7.09006,0,-177.284
0.3,495.553,289.763,6.65591,40,0,0,-176.502
0.32,494.755,289.708,7.45591,40,0,0,-175.625
0.34,493.958,289.642,8.25591,40,0,0,-174.666
0.36,493.162,289.561,9.05591,40,0,0,-173.631
0.38,492.367,289.464,9.85591,40,0,0,-172.473
0.4,491.576,289.351,10.6559,40,0,0,-171.197
0.42,490.786,289.22,11.4559,40,0,0,-169.835
0.44,490.001,289.07,12.2559,40,0,0,-168.393
0.46,489.219,288.899,13.0559,40,0,0,-166.869
0.48,488.443,288.706,13.8559,40,0,0,-165.22
0.5,487.672,288.491,14.6559,40,0,0,-163.479
0.52,486.909,288.252,15.4559,40,0,0,-161.667
0.54,486.153,287.989,16.2559,40,0,0,-159.795
0.56,485.407,287.7,17.0559,40,0,0,-157.865
0.58,484.672,287.386,17.8559,40,0,0,-155.873
0.6,483.947,287.046,18.6559,40,0,0,-153.838
0.62,483.236,286.681,19.4559,40,0,0,-151.787
0.64,482.538,286.29,20.2559,40,0,0,-149.732
0.66,481.854,285.874,21.0559,40,0,0,-147.682
0.68,481.186,285.435,21.8559,40,0,0,-145.655
0.7,480.534,284.972,22.6559,40,0,0,-143.666
0.72,479.897,284.487,23.4559,40,0,0,-141.736
0.74,479.278,283.981,24.2559,40,0,0,-139.869
0.76,478.675,283.455,25.0559,40,0,0,-138.066
0.78,478.088,282.911,25.8559,40,0,0,-136.351
0.8,477.517,282.351,26.6559,40,0,0,-134.717
0.82,476.963,281.774,27.4559,40,0,0,-133.175
0.84,476.423,281.184,28.2559,40,0,0,-131.729
0.86,475.898,280.58,29.0559,40,0,0,-130.38
0.88,475.387,279.965,29.8559,40,0,0,-129.131
0.9,474.889,279.339,30.6559,40,0,0,-127.969
0.92,474.403,278.703,31.4559,40,0,0,-126.897
0.94,473.929,278.059,32.2559,40,0,0,-125.919
0.96,473.465,277.407,33.0559,40,0,0,-125.037
0.98,473.011,276.749,33.8559,40,0,0,-124.242
1,472.565,276.084,34.6559,40,0,0,-123.522
1.02,472.127,275.414,35.4559,40,0,0,-122.889
1.04,471.697,274.74,36.2559,40,0,0,-122.34
1.06,471.272,274.062,37.0559,40,0,0,-121.864
1.08,470.853,273.381,37.8559,40,0,0,-121.463
1.1,470.437,272.697,38.6559,40,0,0,-121.132
1.12,470.026,272.011,39.4559,40,0,0,-120.883
1.14,469.616,271.324,40.2559,40,0,0,-120.709
1.16,469.209,270.635,41.0559,40,0,0,-120.589
1.18,468.803,269.946,41.8559,40,0,0,-120.536
1.2,468.396,269.257,42.6559,40,0,0,-120.574
1.22,467.989,268.569,43.4559,40,0,0,-120.68
1.24,467.58,267.881,44.2559,40,0,0,-120.845
1.26,467.169,267.195,45.0559,40,0,0,-121.065
1.28,466.755,266.51,45.8559,40,0,0,-121.372
1.3,466.337,265.828,46.6559,40,0,0,-121.767
1.32,465.913,265.15,47.4559,40,0,0,-122.226
1.34,465.484,264.474,48.2559,40,0,0,-122.744
1.36,465.048,263.804,49.0559,40,0,0,-123.326
1.38,464.605,263.138,49.8559,40,0,0,-124.033
1.4,464.153,262.477,50.6559,40,0,0,-124.816
1.42,463.692,261.824,51.4559,40,0,0,-125.668
1.44,463.221,261.177,52.2559,40,0,0,-126.595
1.46,462.739,260.539,53.0559,40,0,0,-127.608
1.48,462.244,259.91,53.8559,40,0,0,-128.753
1.5,461.738,259.291,54.6559,40,0,0,-129.985
1.52,461.217,258.683,55.4559,40,0,0,-131.299
1.54,460.682,258.088,56.2559,40,0,0,-132.701
1.56,460.132,257.507,57.0559,40,0,0,-134.198
1.58,459.567,256.942,57.8559,40,0,0,-135.836
1.6,458.985,256.392,58.6559,40,0,0,-137.566
1.62,458.387,255.861,59.4559,40,0,0,-139.377
1.64,457.772,255.35,60.2559,40,0,0,-141.269
1.66,457.139,254.86,61.0559,40,0,0,-143.24
1.68,456.49,254.393,61.8559,40,0,0,-145.321
1.7,455.824,253.95,62.6559,40,0,0,-147.468
1.72,455.141,253.532,63.4559,40,0,0,-149.663
1.74,454.443,253.142,64.2559,40,0,0,-151.895
1.76,453.731,252.779,65.0559,40,0,0,-154.156
1.78,453.004,252.444,65.8559,40,0,0,-156.438
1.8,452.264,252.139,66.6559,40,0,0,-158.715
1.82,451.513,251.864,67.4559,40,0,0,-160.972
1.84,450.752,251.618,68.2559,40,0,0,-163.199
1.86,449.982,251.402,69.0559,40,0,0,-165.388
1.88,449.204,251.215,69.8559,40,0,0,-167.522
1.9,448.42,251.056,70.6559,40,0,0,-169.584
1.92,447.631,250.926,71.4559,40,0,0,-171.568
1.94,446.838,250.822,72.2559,40,0,0,-173.474
1.96,446.041,250.745,73.0559,40,0,0,-175.312
1.98,445.243,250.692,73.8559,40,0,0,-177.064
2,444.444,250.663,74.6559,40,0,0,-178.717
2.02,443.644,250.657,75.4559,40,0,0,179.721
2.04,442.844,250.672,76.2559,40,0,0,178.237
2.06,442.045,250.707,77.0559,40,0,0,176.819
2.08,441.247,250.761,77.8559,40,0,0,175.485
2.1,440.45,250.833,78.6559,40,0,0,174.262
2.12,439.655,250.921,79.4559,40,0,0,173.105
2.14,438.862,251.026,80.2559,40,0,0,172.003
2.16,438.07,251.144,81.0559,40,0,0,170.958
2.18,437.282,251.277,81.8559,40,0,0,170.03
2.2,436.495,251.422,82.6559,40,0,0,169.156
2.22,435.71,251.579,83.4559,40,0,0,168.329
2.24,434.928,251.746,84.2559,40,0,0,167.565
2.26,434.148,251.923,85.0559,40,-4.89284,0,166.885
2.28,433.37,252.11,85.8559,40,-74.8928,0,166.263
2.3,432.612,252.299,86.6375,38.5652,-127.341,0,165.681
2.32,431.893,252.488,87.3805,36.148,-150,0,164.765
2.34,431.219,252.679,88.0816,33.148,-150,0,163.572
2.36,430.623,252.861,88.7042,30.148,-150,0,162.54
2.38,430.084,253.036,89.271,27.148,-150,0,161.634
2.4,429.595,253.202,89.7874,24.148,-150,0,160.842
2.42,429.184,253.348,90.223,21.148,-116.545,0,160.197
2.44,428.828,253.478,90.6022,18.148,-59.6757,0,159.653
2.46,428.474,253.612,90.9813,15.148,-2.80636,0,159.11
2.48,428.19,253.722,91.2852,15,0,0,158.693
2.5,427.911,253.832,91.5852,15,0,0,158.282
2.52,427.633,253.944,91.8852,15,0,0,157.872
2.54,427.355,254.058,92.1852,15,0,0,157.489
2.56,427.079,254.174,92.4852,15,0,0,157.124
2.58,426.803,254.291,92.7852,15,0,0,156.758
2.6,426.528,254.411,93.0852,15,0,0,156.398
2.62,426.253,254.532,93.3852,15,0,0,156.05
2.64,425.979,254.655,93.6852,15,0,0,155.703
2.66,425.706,254.779,93.9852,15,0,0,155.355
2.68,425.434,254.905,94.2852,15,0,0,155.032
2.7,425.163,255.032,94.5852,15,0,0,154.71
2.72,424.892,255.161,94.8852,15,0,0,154.389
2.74,424.622,255.292,95.1852,15,0,0,154.087
2.76,424.352,255.424,95.4852,15,0,0,153.799
2.78,424.083,255.557,95.7852,15,0,0,153.51
2.8,423.815,255.692,96.0852,15,0,0,153.226
2.82,423.548,255.828,96.3852,15,0,0,152.956
2.84,423.281,255.965,96.6852,15,0,0,152.685
2.86,423.015,256.103,96.9852,15,0,0,152.414
2.88,422.749,256.243,97.2852,15,0,0,152.164
2.9,422.484,256.383,97.5852,15,0,0,151.915
2.92,422.22,256.525,97.8852,15,0,0,151.666
2.94,421.956,256.668,98.1852,15,0,0,151.434
2.96,421.693,256.812,98.4852,15,0,0,151.213
2.98,421.43,256.957,98.7852,15,0,0,150.991
3,421.168,257.103,99.0852,15,0,0,150.773
3.02,420.907,257.25,99.3852,15,0,0,150.567
3.04,420.646,257.398,99.6852,15,0,0,150.36
3.06,420.386,257.547,99.9852,15,0,0,150.153
3.08,420.126,257.697,100.285,15,0,0,149.961
3.1,419.866,257.848,100.585,15,0,0,149.769
3.12,419.607,257.999,100.885,15,0,0,149.577
3.14,419.349,258.152,101.185,15,0,0,149.395
3.16,419.091,258.305,101.485,15,0,0,149.22
3.18,418.833,258.459,101.785,15,0,0,149.045
3.2,418.576,258.614,102.085,15,0,0,148.873
3.22,418.32,258.769,102.385,15,0,0,148.709
3.24,418.064,258.925,102.685,15,0,0,148.545
3.26,417.808,259.082,102.985,15,0,0,148.381
3.28,417.553,259.24,103.285,15,0,0,148.223
3.3,417.298,259.398,103.585,15,0,0,148.066
3.32,417.044,259.557,103.885,15,0,0,147.909
3.34,416.79,259.717,104.185,15,0,0,147.755
3.36,416.536,259.877,104.485,15,0,0,147.603
3.38,416.283,260.039,104.785,15,0,0,147.45
3.4,416.03,260.2,105.085,15,0,0,147.299
3.42,415.778,260.363,105.385,15,0,0,147.149
3.44,415.526,260.526,105.685,15,0,0,147
3.46,415.275,260.69,105.985,15,0,0,146.85
3.48,415.024,260.854,106.285,15,0,0,146.7
3.5,414.774,261.019,106.585,15,0,0,146.549
3.52,414.523,261.185,106.885,15,0,0,146.398
3.54,414.274,261.351,107.185,15,0,0,146.246
3.56,414.025,261.518,107.485,15,0,0,146.092
3.58,413.776,261.686,107.785,15,0,0,145.938
3.6,413.527,261.854,108.085,15,0,0,145.783
3.62,413.28,262.023,108.385,15,0,0,145.625
3.64,413.032,262.193,108.685,15,0,0,145.467
3.66,412.785,262.363,108.985,15,0,0,145.309
3.68,412.539,262.534,109.285,15,0,0,145.146
3.7,412.293,262.706,109.585,15,0,0,144.983
3.72,412.047,262.878,109.885,15,0,0,144.82
3.74,411.803,263.052,110.185,15,0,0,144.654
3.76,411.558,263.226,110.485,15,0,0,144.485
3.78,411.314,263.4,110.785,15,0,0,144.316
3.8,411.071,263.575,111.085,15,0,0,144.145
3.82,410.828,263.752,111.385,15,0,0,143.971
3.84,410.585,263.928,111.685,15,0,0,143.796
3.86,410.344,264.106,111.985,15,0,0,143.622
3.88,410.102,264.284,112.285,15,0,0,143.444
3.9,409.862,264.463,112.585,15,0,0,143.266
3.92,409.621,264.643,112.885,15,0,0,143.088
3.94,409.382,264.824,113.185,15,0,0,142.909
3.96,409.143,265.005,113.485,15,0,0,142.729
3.98,408.904,265.187,113.785,15,0,0,142.549
4,408.667,265.37,114.085,15,0,0,142.369
4.02,408.429,265.553,114.385,15,0,0,142.188
4.04,408.193,265.738,114.685,15,0,0,142.007
4.06,407.956,265.923,114.985,15,0,0,141.826
4.08,407.721,266.108,115.285,15,0,0,141.647
4.1,407.486,266.295,115.585,15,0,0,141.468
4.12,407.251,266.482,115.885,15,0,0,141.289
4.14,407.018,266.67,116.185,15,0,0,141.111
4.16,406.784,266.859,116.485,15,0,0,140.935
4.18,406.552,267.048,116.785,15,0,0,140.759
4.2,406.32,267.238,117.085,15,0,0,140.584
4.22,406.088,267.429,117.385,15,0,0,140.411
4.24,405.857,267.621,117.685,15,0,0,140.239
4.26,405.627,267.813,117.985,15,0,0,140.067
4.28,405.397,268.006,118.285,15,0,0,139.9
4.3,405.168,268.2,118.585,15,0,0,139.734
4.32,404.94,268.394,118.885,15,0,0,139.568
4.34,404.712,268.589,119.185,15,0,0,139.407
4.36,404.484,268.784,119.485,15,0,0,139.249
4.38,404.257,268.98,119.785,15,0,0,139.091
4.4,404.031,269.177,120.085,15,0,0,138.935
4.42,403.805,269.375,120.385,15,0,0,138.783
4.44,403.579,269.573,120.685,15,0,0,138.632
4.46,403.355,269.771,120.985,15,0,0,138.48
4.48,403.13,269.97,121.285,15,0,0,138.337
4.5,402.906,270.17,121.585,15,0,0,138.194
4.52,402.683,270.371,121.885,15,0,0,138.052
4.54,402.46,270.571,122.185,15,0,0,137.916
4.56,402.238,270.773,122.485,15,0,0,137.784
4.58,402.016,270.975,122.785,15,0,0,137.652
4.6,401.794,271.177,123.085,15,0,0,137.522
4.62,401.573,271.38,123.385,15,0,0,137.397
4.64,401.353,271.583,123.685,15,0,0,137.272
4.66,401.133,271.787,123.985,15,0,0,137.146
4.68,400.913,271.991,124.285,15,0,0,137.033
4.7,400.694,272.196,124.585,15,0,0,136.921
4.72,400.475,272.401,124.885,15,0,0,136.809
4.74,400.256,272.607,125.185,15,0,0,136.702
4.76,400.038,272.813,125.485,15,0,0,136.599
4.78,399.821,273.019,125.785,15,0,0,136.496
4.8,399.603,273.226,126.085,15,0,0,136.395
4.82,399.386,273.433,126.385,15,0,0,136.3
4.84,399.169,273.64,126.685,15,0,0,136.204
4.86,398.953,273.848,126.985,15,0,0,136.109
4.88,398.737,274.057,127.285,15,0,0,136.029
4.9,398.521,274.265,127.585,15,0,0,135.949
4.92,398.306,274.474,127.885,15,0,0,135.87
4.94,398.091,274.683,128.185,15,0,0,135.794
4.96,397.876,274.892,128.485,15,0,0,135.72
4.98,397.661,275.102,128.785,15,0,0,135.646
5,397.447,275.312,129.085,15,0,0,135.577
5.02,397.233,275.522,129.385,15,0,0,135.518
5.04,397.019,275.732,129.685,15,0,0,135.46
5.06,396.805,275.943,129.985,15,0,0,135.402
5.08,396.592,276.154,130.285,15,0,0,135.353
5.1,396.379,276.365,130.585,15,0,0,135.305
5.12,396.165,276.576,130.885,15,0,0,135.256
5.14,395.953,276.787,131.185,15,0,0,135.215
5.16,395.74,276.999,131.485,15,0,0,135.177
5.18,395.527,277.21,131.785,15,0,0,135.14
5.2,395.314,277.422,132.085,15,-9.58449,0,135.108
5.22,395.102,277.634,132.385,15,-43.3345,0,135.088
5.24,394.89,277.846,132.685,15,-77.0845,0,135.068
5.26,394.677,278.058,132.985,15,-110.834,0,135.048
5.28,394.566,278.169,133.143,12.861,-112.5,0,135.04
5.3,394.46,278.275,133.293,10.611,-112.5,0,135.034
5.32,394.354,278.381,133.443,8.36103,-112.5,0,135.027
5.34,394.248,278.487,133.593,6.11103,-112.5,0,135.02
5.36,394.142,278.593,133.743,3.86103,-112.5,0,135.014
5.38,394.036,278.699,133.893,1.61103,-112.5,0,135.007
