"time","x","y","position","velocity","acceleration","jerk","heading"
0,361.303,266.332,0,0,0,0,-53.8
0.02,361.405,266.192,0.173217,8.66083,433.042,21652.1,-53.8
0.04,361.508,266.052,0.347024,8.69037,1.47684,-21578.2,-53.8
0.06,361.61,265.913,0.519433,8.62047,-3.49492,-248.588,-53.8
0.08,361.712,265.773,0.69265,8.66083,2.01808,275.65,-53.8
0.1,361.814,265.633,0.865867,8.66083,-8.37552e-11,-100.904,-53.8
0.12,361.95,265.449,1.09467,11.4403,138.972,6948.62,-53.8
0.14,362.197,265.111,1.5133,20.9316,474.567,16779.7,-53.8
0.16,362.443,264.774,1.93056,20.863,-3.43229,-23900,-53.7999
0.18,362.753,264.35,2.45502,26.2228,267.993,13571.3,-53.7998
0.2,363.075,263.91,3.00028,27.2631,52.0137,-10799,-53.7997
0.22,363.457,263.388,3.6472,32.3459,254.14,10106.3,-53.7994
0.24,363.862,262.835,4.33277,34.2783,96.6215,-7875.92,-53.7989
0.26,364.299,262.237,5.07357,37.0402,138.093,2073.57,-53.7983
0.28,364.779,261.582,5.88584,40.6135,178.665,2028.61,-53.7974
0.3,365.294,260.878,6.75849,43.6326,150.958,-1385.36,-53.7958
0.32,365.843,260.127,7.68844,46.4976,143.246,-385.586,-53.7938
0.34,366.429,259.329,8.67859,49.5072,150.479,361.648,-53.791
0.36,367.048,258.481,9.72865,52.5029,149.787,-34.6062,-53.787
0.38,367.704,257.586,10.8382,55.4758,148.644,-57.1524,-53.7819
0.4,368.394,256.644,12.006,58.3933,145.874,-138.488,-53.7754
0.42,369.124,255.647,13.2417,61.785,169.589,1185.73,-53.7663
0.44,369.889,254.604,14.5351,64.6707,144.285,-1265.18,-53.7551
0.46,370.688,253.514,15.8865,67.5674,144.835,27.494,-53.7409
0.48,371.526,252.373,17.3015,70.7523,159.241,720.31,-53.723
0.5,372.399,251.184,18.7771,73.7763,151.2,-402.037,-53.7007
0.52,373.309,249.946,20.3139,76.8397,153.169,98.4273,-53.6732
0.54,374.255,248.659,21.9108,79.8466,150.346,-141.129,-53.6394
0.56,375.241,247.322,23.5721,83.0648,160.913,528.352,-53.5983
0.58,376.263,245.937,25.2934,86.0658,150.047,-543.345,-53.5481
0.6,377.323,244.503,27.0762,89.1391,153.666,180.979,-53.4886
0.62,378.423,243.018,28.9249,92.4383,164.959,564.645,-53.4152
0.64,379.564,241.484,30.8365,95.58,157.088,-393.551,-53.3285
0.66,380.745,239.9,32.812,98.7734,159.666,128.896,-53.2243
0.68,381.968,238.267,34.8523,102.013,161.969,115.176,-53.1013
0.7,383.235,236.585,36.9583,105.301,164.423,122.678,-52.9547
0.72,384.545,234.854,39.1292,108.543,162.114,-115.435,-52.7818
0.74,385.902,233.072,41.3688,111.984,172.034,495.98,-52.5779
0.76,387.31,231.241,43.6792,115.517,176.647,230.642,-52.3365
0.78,388.769,229.361,46.0579,118.936,170.937,-285.482,-52.0549
0.8,390.279,227.434,48.507,122.456,176,253.137,-51.7243
0.82,391.83,225.482,51.0001,124.653,109.846,-3307.68,-51.3432
0.84,393.403,223.531,53.506,125.296,32.1831,-3883.16,-50.9107
0.86,394.999,221.583,56.0244,125.92,31.1692,-50.6988,-50.4246
0.88,396.622,219.637,58.5583,126.694,38.6911,376.097,-49.8785
0.9,398.275,217.697,61.1064,127.407,35.6853,-150.29,-49.2714
0.92,399.959,215.763,63.6709,128.223,40.8,255.733,-48.5982
0.94,401.678,213.838,66.2521,129.061,41.8886,54.4343,-47.8573
0.96,403.434,211.925,68.8492,129.853,39.5981,-114.526,-47.048
0.98,405.23,210.024,71.4642,130.752,44.9645,268.319,-46.1715
1,407.067,208.142,74.094,131.489,36.8485,-405.8,-45.2315
1.02,408.946,206.28,76.7397,132.287,39.8619,150.668,-44.2256
1.04,410.868,204.443,79.3983,132.928,32.0844,-388.872,-43.1667
1.06,412.833,202.635,82.0684,133.504,28.8094,-163.752,-42.0608
1.08,414.839,200.86,84.7471,133.935,21.5216,-364.39,-40.9179
1.1,416.887,199.122,87.4326,134.275,16.9808,-227.042,-39.7501
1.12,418.972,197.424,90.1216,134.451,8.82047,-408.014,-38.5686
1.14,421.09,195.769,92.8097,134.403,-2.41476,-561.761,-37.3875
1.16,423.241,194.16,95.4954,134.29,-5.6487,-161.697,-36.2195
1.18,425.418,192.6,98.1742,133.937,-17.6433,-599.731,-35.0761
1.2,427.619,191.086,100.846,133.578,-17.9482,-15.2441,-33.9665
1.22,429.839,189.621,103.506,132.99,-29.4048,-572.831,-32.903
1.24,432.074,188.202,106.153,132.358,-31.6056,-110.037,-31.8902
1.26,434.323,186.83,108.787,131.704,-32.6978,-54.609,-30.933
1.28,436.58,185.501,111.406,130.979,-36.2487,-177.549,-30.0345
1.3,438.844,184.215,114.011,130.222,-37.8126,-78.1948,-29.1976
1.32,441.113,182.967,116.6,129.475,-37.3545,22.9054,-28.4231
1.34,443.386,181.755,119.175,128.756,-35.9736,69.0467,-27.7069
1.36,445.659,180.579,121.735,127.988,-38.4125,-121.947,-27.0512
1.38,447.93,179.434,124.278,127.167,-41.0408,-131.415,-26.4508
1.4,450.163,178.337,126.766,124.386,-139.057,-4900.8,-25.9135
1.42,452.336,177.292,129.177,120.556,-191.506,-2622.47,-25.4362
1.44,454.45,176.296,131.514,116.847,-185.426,304.003,-25.0149
1.46,456.507,175.345,133.781,113.328,-175.934,474.601,-24.6398
1.48,458.506,174.435,135.977,109.79,-176.914,-49.0032,-24.3089
1.5,460.447,173.565,138.104,106.376,-170.688,311.286,-24.0157
1.52,462.329,172.731,140.162,102.908,-173.399,-135.555,-23.757
1.54,464.152,171.933,142.152,99.5076,-170.033,168.331,-23.5291
1.56,465.917,171.168,144.076,96.1861,-166.076,197.828,-23.3273
1.58,467.624,170.435,145.934,92.8719,-165.712,18.2192,-23.1506
1.6,469.275,169.732,147.728,89.7337,-156.91,440.074,-22.9938
1.62,470.868,169.059,149.457,86.4546,-163.956,-352.259,-22.8572
1.64,472.4,168.415,151.119,83.1036,-167.548,-179.626,-22.737
1.66,473.879,167.797,152.722,80.1302,-148.668,944.011,-22.6319
1.68,475.296,167.207,154.258,76.7716,-167.933,-963.277,-22.5401
1.7,476.66,166.642,155.734,73.8289,-147.133,1040.02,-22.4603
1.72,477.963,166.105,157.143,70.4562,-168.636,-1075.17,-22.3912
1.74,479.213,165.591,158.494,67.5468,-145.471,1158.28,-22.3314
1.76,480.404,165.102,159.782,64.4018,-157.246,-588.745,-22.2797
1.78,481.536,164.639,161.005,61.1504,-162.574,-266.411,-22.2357
1.8,482.613,164.199,162.168,58.1494,-150.05,626.209,-22.1987
1.82,483.633,163.783,163.27,55.0887,-153.033,-149.168,-22.1667
1.84,484.597,163.39,164.311,52.0409,-152.392,32.0519,-22.1402
1.86,485.505,163.021,165.291,49.0053,-151.78,30.5819,-22.1182
1.88,486.355,162.677,166.208,45.8692,-156.803,-251.116,-22.0998
1.9,487.15,162.353,167.067,42.931,-146.91,494.625,-22.0848
1.92,487.894,162.052,167.869,40.1167,-140.718,309.632,-22.0729
1.94,488.576,161.775,168.605,36.8124,-165.214,-1224.82,-22.0632
1.96,489.193,161.526,169.271,33.2627,-177.482,-613.418,-22.056
1.98,489.77,161.292,169.894,31.1404,-106.118,3568.22,-22.05
2,490.276,161.087,170.439,27.2976,-192.14,-4301.09,-22.0462
2.02,490.733,160.901,170.932,24.644,-132.677,2973.12,-22.043
2.04,491.121,160.744,171.351,20.9537,-184.517,-2591.97,-22.0409
2.06,491.504,160.59,171.764,20.6193,-16.7172,8389.98,-22.0388
2.08,491.665,160.525,171.938,8.68497,-596.719,-29000.1,-22.0385
2.1,491.825,160.46,172.11,8.63984,-2.2561,29723.1,-22.0381
2.12,491.986,160.395,172.284,8.68497,2.2561,225.61,-22.0378
2.14,492.146,160.33,172.457,8.63984,-2.2561,-225.61,-22.0374
2.16,492.307,160.265,172.63,8.68497,2.2561,225.61,-22.0371
