"time","x","y","position","velocity","acceleration","jerk","heading"
0,504.182,295.734,0,0,150,0,-180
0.02,504.008,295.734,0.173205,3,150,0,-179.999
0.04,503.835,295.734,0.34641,6,150,0,-179.998
0.06,503.662,295.734,0.519615,9,150,0,-179.996
0.08,503.489,295.734,0.69282,12,150,0,-179.995
0.1,503.316,295.734,0.866025,15,150,0,-179.994
0.12,503.087,295.734,1.09471,18,150,0,-179.991
0.14,502.669,295.734,1.51286,21,150,0,-179.983
0.16,502.251,295.734,1.93102,24,150,0,-179.975
0.18,501.727,295.734,2.45505,27,150,0,-179.959
0.2,501.182,295.733,3,30,150,0,-179.942
0.22,500.535,295.733,3.64641,33,150,0,-179.914
0.24,499.849,295.731,4.33237,36,116.763,0,-179.88
0.26,499.111,295.73,5.0709,38.8199,46.455,0,-179.839
0.28,498.323,295.727,5.8582,39.8199,7.09006,0,-179.787
0.3,497.526,295.724,6.65591,40,0,0,-179.728
0.32,496.726,295.72,7.45591,40,0,0,-179.662
0.34,495.926,295.714,8.25591,40,0,0,-179.589
0.36,495.126,295.708,9.05591,40,0,0,-179.511
0.38,494.326,295.701,9.85591,40,0,0,-179.424
0.4,493.526,295.692,10.6559,40,0,0,-179.332
0.42,492.726,295.682,11.4559,40,0,0,-179.233
0.44,491.926,295.671,12.2559,40,0,0,-179.128
0.46,491.126,295.658,13.0559,40,0,0,-179.017
0.48,490.326,295.643,13.8559,40,0,0,-178.899
0.5,489.526,295.627,14.6559,40,0,0,-178.775
0.52,488.727,295.609,15.4559,40,0,0,-178.644
0.54,487.927,295.589,16.2559,40,0,0,-178.508
0.56,487.127,295.568,17.0559,40,0,0,-178.365
0.58,486.328,295.544,17.8559,40,0,0,-178.215
0.6,485.528,295.518,18.6559,40,0,0,-178.061
0.62,484.728,295.49,19.4559,40,0,0,-177.9
0.64,483.929,295.459,20.2559,40,0,0,-177.734
0.66,483.13,295.426,21.0559,40,0,0,-177.563
0.68,482.33,295.391,21.8559,40,0,0,-177.384
0.7,481.531,295.354,22.6559,40,0,0,-177.2
0.72,480.732,295.313,23.4559,40,0,0,-177.011
0.74,479.934,295.27,24.2559,40,0,0,-176.816
0.76,479.135,295.224,25.0559,40,0,0,-176.616
0.78,478.336,295.176,25.8559,40,0,0,-176.411
0.8,477.538,295.124,26.6559,40,0,0,-176.199
0.82,476.74,295.07,27.4559,40,0,0,-175.983
0.84,475.942,295.012,28.2559,40,0,0,-175.763
0.86,475.144,294.952,29.0559,40,0,0,-175.537
0.88,474.347,294.888,29.8559,40,0,0,-175.309
0.9,473.55,294.821,30.6559,40,0,0,-175.073
0.92,472.753,294.75,31.4559,40,0,0,-174.835
0.94,471.956,294.677,32.2559,40,0,0,-174.594
0.96,471.16,294.6,33.0559,40,0,0,-174.349
0.98,470.364,294.519,33.8559,40,0,0,-174.102
1,469.568,294.435,34.6559,40,0,0,-173.852
1.02,468.773,294.348,35.4559,40,0,0,-173.601
1.04,467.978,294.257,36.2559,40,0,0,-173.348
1.06,467.184,294.163,37.0559,40,0,0,-173.095
1.08,466.39,294.065,37.8559,40,0,0,-172.841
1.1,465.596,293.963,38.6559,40,0,0,-172.588
1.12,464.803,293.858,39.4559,40,0,0,-172.336
1.14,464.011,293.75,40.2559,40,0,0,-172.086
1.16,463.219,293.638,41.0559,40,0,0,-171.839
1.18,462.427,293.523,41.8559,40,0,0,-171.595
1.2,461.636,293.404,42.6559,40,0,0,-171.357
1.22,460.845,293.282,43.4559,40,0,0,-171.124
1.24,460.055,293.157,44.2559,40,0,0,-170.896
1.26,459.265,293.029,45.0559,40,0,0,-170.673
1.28,458.476,292.898,45.8559,40,0,0,-170.465
1.3,457.687,292.764,46.6559,40,0,0,-170.264
1.32,456.899,292.627,47.4559,40,0,0,-170.07
1.34,456.111,292.488,48.2559,40,0,0,-169.888
1.36,455.324,292.346,49.0559,40,0,0,-169.721
1.38,454.537,292.202,49.8559,40,0,0,-169.566
1.4,453.75,292.056,50.6559,40,0,0,-169.422
1.42,452.964,291.908,51.4559,40,0,0,-169.296
1.44,452.178,291.759,52.2559,40,0,0,-169.187
1.46,451.393,291.608,53.0559,40,0,0,-169.089
1.48,450.607,291.456,53.8559,40,0,0,-169.007
1.5,449.822,291.303,54.6559,40,0,0,-168.95
1.52,449.037,291.149,55.4559,40,0,0,-168.908
1.54,448.252,290.995,56.2559,40,0,0,-168.879
1.56,447.467,290.841,57.0559,40,0,0,-168.865
1.58,446.682,290.686,57.8559,40,0,0,-168.881
1.6,445.897,290.532,58.6559,40,0,0,-168.912
1.62,445.112,290.378,59.4559,40,0,0,-168.955
1.64,444.327,290.225,60.2559,40,0,0,-169.016
1.66,443.541,290.073,61.0559,40,0,0,-169.099
1.68,442.756,289.922,61.8559,40,0,0,-169.197
1.7,441.97,289.773,62.6559,40,0,0,-169.308
1.72,441.183,289.626,63.4559,40,0,0,-169.438
1.74,440.397,289.48,64.2559,40,0,0,-169.583
1.76,439.61,289.336,65.0559,40,0,0,-169.738
1.78,438.822,289.195,65.8559,40,0,0,-169.905
1.8,438.035,289.056,66.6559,40,0,0,-170.091
1.82,437.246,288.919,67.4559,40,0,0,-170.286
1.84,436.458,288.786,68.2559,40,0,0,-170.487
1.86,435.668,288.655,69.0559,40,0,0,-170.697
1.88,434.879,288.527,69.8559,40,0,0,-170.921
1.9,434.088,288.402,70.6559,40,0,0,-171.149
1.92,433.298,288.281,71.4559,40,0,0,-171.383
1.94,432.506,288.162,72.2559,40,0,0,-171.622
1.96,431.715,288.048,73.0559,40,0,0,-171.866
1.98,430.923,287.936,73.8559,40,0,0,-172.113
2,430.13,287.828,74.6559,40,0,0,-172.364
2.02,429.337,287.723,75.4559,40,0,0,-172.616
2.04,428.543,287.622,76.2559,40,0,0,-172.869
2.06,427.749,287.525,77.0559,40,0,0,-173.123
2.08,426.955,287.431,77.8559,40,0,0,-173.376
2.1,426.16,287.34,78.6559,40,0,0,-173.629
2.12,425.365,287.253,79.4559,40,0,0,-173.88
2.14,424.569,287.17,80.2559,40,0,0,-174.129
2.16,423.773,287.09,81.0559,40,0,0,-174.377
2.18,422.977,287.013,81.8559,40,0,0,-174.621
2.2,422.18,286.94,82.6559,40,0,0,-174.861
2.22,421.383,286.87,83.4559,40,0,0,-175.099
2.24,420.586,286.803,84.2559,40,0,0,-175.334
2.26,419.788,286.74,85.0559,40,0,0,-175.562
2.28,418.991,286.679,85.8559,40,0,0,-175.788
2.3,418.193,286.622,86.6559,40,0,0,-176.007
2.32,417.395,286.568,87.4559,40,0,0,-176.222
2.34,416.596,286.517,88.2559,40,0,0,-176.433
2.36,415.798,286.468,89.0559,40,0,0,-176.638
2.38,414.999,286.423,89.8559,40,0,0,-176.838
2.4,414.2,286.38,90.6559,40,0,0,-177.032
2.42,413.401,286.34,91.4559,40,0,0,-177.221
2.44,412.602,286.303,92.2559,40,0,0,-177.404
2.46,411.803,286.268,93.0559,40,0,0,-177.582
2.48,411.003,286.235,93.8559,40,0,0,-177.753
2.5,410.204,286.205,94.6559,40,0,0,-177.919
2.52,409.404,286.177,95.4559,40,0,0,-178.078
2.54,408.605,286.152,96.2559,40,0,0,-178.232
2.56,407.805,286.128,97.0559,40,0,0,-178.381
2.58,407.005,286.106,97.8559,40,0,0,-178.524
2.6,406.206,286.087,98.6559,40,0,0,-178.659
2.62,405.406,286.069,99.4559,40,0,0,-178.788
2.64,404.606,286.053,100.256,40,0,0,-178.912
2.66,403.806,286.039,101.056,40,0,0,-179.03
2.68,403.006,286.026,101.856,40,0,0,-179.14
2.7,402.206,286.015,102.656,40,0,0,-179.244
2.72,401.406,286.005,103.456,40,0,0,-179.342
2.74,400.607,285.996,104.256,40,0,0,-179.434
2.76,399.807,285.989,105.056,40,0,0,-179.52
2.78,399.007,285.983,105.856,40,0,0,-179.598
2.8,398.207,285.978,106.656,40,0,0,-179.669
2.82,397.407,285.974,107.456,40,-22.7956,0,-179.735
2.84,396.611,285.97,108.252,39.6801,-75.1848,0,-179.793
2.86,395.826,285.968,109.036,38.5807,-150,0,-179.845
2.88,395.092,285.966,109.77,35.5807,-150,0,-179.885
2.9,394.419,285.965,110.444,32.5807,-150,0,-179.917
2.92,393.786,285.964,111.076,29.5807,-150,0,-179.944
2.94,393.241,285.964,111.621,26.5807,-150,0,-179.961
2.96,392.735,285.964,112.127,23.5807,-150,0,-179.976
2.98,392.317,285.964,112.546,20.5807,-150,0,-179.984
3,391.899,285.964,112.964,17.5807,-150,0,-179.992
3.02,391.704,285.964,113.158,14.5807,-150,0,-179.994
3.04,391.531,285.964,113.331,11.5807,-150,0,-179.995
3.06,391.358,285.964,113.505,8.58067,-150,0,-179.996
3.08,391.185,285.964,113.678,5.58067,-150,0,-179.998
3.1,391.012,285.964,113.851,2.58067,-150,0,-179.999
