"time","x","y","position","velocity","acceleration","jerk","heading"
0,502.206,274.898,0,0,0,0,-180
0.02,502.036,274.898,0.169597,8.47983,423.992,21199.6,-179.987
0.04,501.867,274.898,0.338931,8.46674,-0.654498,-21232.3,-179.973
0.06,501.697,274.898,0.508528,8.47983,0.654499,65.4499,-179.96
0.08,501.527,274.898,0.679125,8.52983,2.5,92.2751,-179.947
0.1,501.358,274.898,0.848459,8.46674,-3.1545,-282.725,-179.933
0.12,501.137,274.898,1.06913,11.0335,128.337,6574.58,-179.905
0.14,500.739,274.897,1.46719,19.9029,443.469,15756.6,-179.825
0.16,500.342,274.896,1.86398,19.8398,-3.15444,-22331.2,-179.744
0.18,499.858,274.893,2.34846,24.2238,219.204,11117.9,-179.593
0.2,499.356,274.89,2.85028,25.0909,43.3523,-8792.56,-179.428
0.22,498.779,274.883,3.42669,28.8205,186.483,7156.52,-179.162
0.24,498.177,274.872,4.02954,30.1426,66.1047,-6018.9,-178.844
0.26,497.541,274.857,4.66511,31.7785,81.7945,784.486,-178.452
0.28,496.884,274.838,5.32262,32.8757,54.858,-1346.82,-177.956
0.3,496.24,274.812,5.96685,32.2114,-33.2135,-4403.58,-177.37
0.32,495.613,274.78,6.59516,31.4156,-39.7915,-328.901,-176.714
0.34,495.002,274.741,7.20703,30.5935,-41.1048,-65.6615,-175.993
0.36,494.411,274.696,7.79981,29.6386,-47.7425,-331.884,-175.204
0.38,493.841,274.644,8.37177,28.5979,-52.0349,-214.621,-174.332
0.4,493.293,274.586,8.92311,27.5674,-51.5269,25.3993,-173.384
0.42,492.764,274.52,9.45675,26.682,-44.2709,362.801,-172.366
0.44,492.253,274.447,9.9722,25.7725,-45.4767,-60.2912,-171.279
0.46,491.762,274.367,10.4698,24.8783,-44.7072,38.474,-170.122
0.48,491.296,274.281,10.9441,23.7148,-58.1748,-673.378,-168.88
0.5,490.849,274.188,11.4006,22.8253,-44.4742,685.031,-167.565
0.52,490.421,274.089,11.8396,21.95,-43.7654,35.4356,-166.187
0.54,490.013,273.984,12.261,21.0697,-44.0158,-12.5176,-164.743
0.56,489.623,273.871,12.6666,20.2803,-39.4705,227.262,-163.236
0.58,489.239,273.751,13.0693,20.1359,-7.22001,1612.53,-161.719
0.6,488.874,273.625,13.4557,19.3209,-40.7512,-1676.56,-160.14
0.62,488.515,273.49,13.8387,19.1517,-8.46035,1614.54,-158.546
0.64,488.162,273.346,14.2203,19.0775,-3.70725,237.655,-156.949
0.66,487.814,273.191,14.6014,19.0555,-1.0988,130.422,-155.347
0.68,487.466,273.025,14.9873,19.2935,11.8999,649.933,-153.766
0.7,487.111,272.845,15.3847,19.8725,28.9501,852.512,-152.228
0.72,486.752,272.648,15.7943,20.4807,30.4079,72.8925,-150.738
0.74,486.384,272.435,16.2196,21.2634,39.1364,436.424,-149.306
0.76,486.006,272.204,16.6625,22.1444,44.0498,245.669,-147.941
0.78,485.607,271.947,17.1373,23.7398,79.7701,1786.02,-146.701
0.8,485.197,271.67,17.6322,24.7463,50.324,-1472.31,-145.534
0.82,484.764,271.365,18.1617,26.4716,86.2655,1797.08,-144.499
0.84,484.313,271.038,18.7192,27.8766,70.2472,-800.914,-143.574
0.86,483.855,270.692,19.2931,28.6936,40.8495,-1469.89,-142.711
0.88,483.347,270.3,19.934,32.0485,167.747,6344.89,-142.104
0.9,482.836,269.897,20.5852,32.5596,25.5527,-7109.73,-141.534
0.92,482.295,269.462,21.28,34.7368,108.864,4165.58,-141.134
0.94,481.725,269,22.0132,36.664,96.3576,-625.34,-140.877
0.96,481.146,268.525,22.7615,37.4154,37.5682,-2939.47,-140.682
0.98,480.522,268.014,23.5685,40.3469,146.577,5450.45,-140.708
1,479.881,267.488,24.3975,41.452,55.2537,-4566.17,-140.816
1.02,479.213,266.944,25.2589,43.0713,80.9639,1285.51,-141.052
1.04,478.517,266.384,26.1525,44.6773,80.3004,-33.174,-141.409
1.06,477.799,265.814,27.0696,45.8556,58.9172,-1069.16,-141.859
1.08,477.045,265.227,28.0245,47.7433,94.3866,1773.47,-142.447
1.1,476.265,264.633,29.0054,49.0454,65.101,-1464.28,-143.141
1.12,475.457,264.035,30.0104,50.2537,60.4183,-234.138,-143.922
1.14,474.624,263.435,31.0372,51.3398,54.3027,-305.779,-144.79
1.16,473.761,262.836,32.0878,52.5271,59.3646,253.097,-145.748
1.18,472.871,262.242,33.1576,53.4903,48.1611,-560.177,-146.778
1.2,471.953,261.652,34.249,54.568,53.8864,286.267,-147.892
1.22,471.011,261.074,35.3541,55.2579,34.4918,-969.73,-149.056
1.24,470.049,260.51,36.4696,55.777,25.958,-426.693,-150.261
1.26,469.065,259.962,37.5961,56.3204,27.1706,60.6286,-151.508
1.28,468.057,259.429,38.7354,56.9687,32.415,262.22,-152.805
1.3,467.032,258.918,39.8811,57.2817,15.6463,-838.435,-154.125
1.32,465.992,258.428,41.0308,57.489,10.3668,-263.974,-155.46
1.34,464.94,257.962,42.1818,57.5456,2.83093,-376.793,-156.802
1.36,463.876,257.521,43.3332,57.5718,1.31095,-75.9993,-158.145
1.38,462.804,257.105,44.4836,57.5201,-2.58492,-194.794,-159.482
1.4,461.726,256.716,45.6288,57.2585,-13.0825,-524.879,-160.803
1.42,460.644,256.354,46.7705,57.0876,-8.54405,226.923,-162.107
1.44,459.559,256.016,47.9061,56.7785,-15.454,-345.497,-163.388
1.46,458.474,255.706,49.0348,56.4332,-17.2659,-90.5964,-164.644
1.48,457.391,255.421,50.1543,55.9784,-22.742,-273.805,-165.864
1.5,456.312,255.162,51.2644,55.5062,-23.6105,-43.4237,-167.048
1.52,455.237,254.925,52.3647,55.0128,-24.6671,-52.8323,-168.196
1.54,454.168,254.713,53.4554,54.5341,-23.9366,36.5255,-169.305
1.56,453.105,254.522,54.5348,53.9695,-28.2273,-214.535,-170.374
1.58,452.051,254.354,55.6023,53.377,-29.6256,-69.9152,-171.396
1.6,451.005,254.205,56.6586,52.816,-28.0531,78.6278,-172.375
1.62,449.967,254.075,57.7049,52.3118,-25.206,142.355,-173.315
1.64,448.937,253.962,58.7408,51.7943,-25.8747,-33.4374,-174.217
1.66,447.915,253.867,59.7671,51.3179,-23.8203,102.721,-175.08
1.68,446.906,253.787,60.78,50.6425,-33.7698,-497.472,-175.895
1.7,445.909,253.723,61.7789,49.946,-34.8262,-52.8218,-176.656
1.72,444.921,253.672,62.7677,49.4404,-25.2825,477.185,-177.377
1.74,443.943,253.633,63.7466,48.9462,-24.7081,28.7202,-178.058
1.76,442.976,253.606,64.714,48.3689,-28.8674,-207.967,-178.7
1.78,442.021,253.589,65.6694,47.7684,-30.0207,-57.6632,-179.293
1.8,441.069,253.583,66.6217,47.6191,-7.46672,1127.7,-179.875
1.82,440.085,253.586,67.6058,49.2023,79.16,4331.34,179.422
1.84,439.079,253.604,68.612,50.3087,55.3217,-1191.91,178.635
1.86,438.08,253.634,69.6116,49.9794,-16.4677,-3589.47,177.874
1.88,437.102,253.677,70.5901,48.9287,-52.5342,-1803.32,177.191
1.9,436.133,253.73,71.5608,48.5321,-19.8326,1635.08,176.54
1.92,435.174,253.794,72.5213,48.0251,-25.3474,-275.741,175.926
1.94,434.226,253.866,73.4727,47.5693,-22.7911,127.812,175.349
1.96,433.287,253.948,74.4148,47.1069,-23.1197,-16.4293,174.806
1.98,432.356,254.037,75.3501,46.7664,-17.0267,304.653,174.288
2,431.436,254.133,76.2748,46.2335,-26.643,-480.815,173.813
2.02,430.523,254.236,77.1941,45.9673,-13.3087,666.714,173.357
2.04,429.615,254.345,78.1083,45.7094,-12.8948,20.6923,172.92
2.06,428.716,254.461,79.0149,45.3304,-18.9496,-302.737,172.511
2.08,427.822,254.582,79.9172,45.1144,-10.8022,407.367,172.121
2.1,426.933,254.707,80.815,44.8896,-11.2375,-21.7648,171.747
2.12,426.049,254.839,81.709,44.6971,-9.62555,80.5985,171.391
2.14,425.171,254.975,82.5973,44.4188,-13.9154,-214.492,171.051
2.16,424.295,255.115,83.4847,44.3661,-2.63557,563.991,170.718
2.18,423.423,255.26,84.3682,44.1788,-9.36316,-336.38,170.398
2.2,422.554,255.41,85.2503,44.1027,-3.8051,277.903,170.087
2.22,421.688,255.563,86.1293,43.9515,-7.56338,-187.914,169.782
2.24,420.823,255.721,87.0087,43.9695,0.903054,423.322,169.479
2.26,419.96,255.885,87.8872,43.9269,-2.13234,-151.77,169.179
2.28,419.097,256.052,88.7663,43.9551,1.41053,177.144,168.879
2.3,418.255,256.22,89.6252,42.9442,-50.5428,-2597.67,168.582
2.32,417.453,256.383,90.4427,40.8752,-103.451,-2645.43,168.297
2.34,416.698,256.541,91.2146,38.5949,-114.015,-528.179,168.026
2.36,416.026,256.686,91.902,34.3666,-211.414,-4869.95,167.78
2.38,415.414,256.82,92.5287,31.3375,-151.456,2997.88,167.552
2.4,414.856,256.944,93.1003,28.5767,-138.04,670.815,167.341
2.42,414.385,257.05,93.5831,24.1416,-221.757,-4185.84,167.161
2.44,413.974,257.144,94.0043,21.0632,-153.918,3391.94,167.002
2.46,413.565,257.24,94.4246,21.0127,-2.52657,7569.58,166.844
2.48,413.236,257.316,94.7623,16.8854,-206.364,-10191.9,166.715
2.5,412.911,257.393,95.0959,16.6776,-10.3899,9798.7,166.587
2.52,412.588,257.471,95.4287,16.6406,-1.85202,426.893,166.459
2.54,412.263,257.55,95.763,16.714,3.67211,276.207,166.33
2.56,411.939,257.629,96.0965,16.6785,-1.77445,-272.328,166.2
2.58,411.614,257.709,96.431,16.7259,2.36909,207.177,166.071
2.6,411.29,257.789,96.7648,16.6904,-1.77267,-207.088,165.941
2.62,410.966,257.872,97.0994,16.7279,1.87096,182.181,165.81
2.64,410.643,257.954,97.433,16.6794,-2.42244,-214.67,165.679
2.66,410.319,258.037,97.7673,16.7148,1.76801,209.522,165.549
2.68,409.996,258.12,98.1009,16.6788,-1.80043,-178.422,165.419
2.7,409.672,258.205,98.4357,16.7397,3.04847,242.445,165.289
2.72,409.349,258.29,98.7695,16.691,-2.43553,-274.2,165.16
2.74,409.027,258.376,99.1033,16.691,8.92081e-05,121.781,165.031
2.76,408.705,258.463,99.4362,16.6426,-2.42301,-121.155,164.903
2.78,408.383,258.549,99.77,16.6908,2.41385,241.843,164.775
2.8,408.062,258.637,100.103,16.6426,-2.41297,-241.341,164.648
2.82,407.741,258.726,100.435,16.6297,-0.64595,88.3508,164.523
2.84,407.42,258.815,100.768,16.6428,0.654486,65.0218,164.397
2.86,407.1,258.905,101.101,16.6431,0.0163798,-31.9053,164.272
2.88,406.781,258.995,101.433,16.5912,-2.59397,-130.517,164.152
2.9,406.462,259.086,101.765,16.5781,-0.654516,96.9726,164.033
2.92,406.144,259.177,102.096,16.5569,-1.06178,-20.363,163.913
2.94,405.826,259.27,102.426,16.5184,-1.92195,-43.0086,163.797
2.96,405.509,259.362,102.756,16.5053,-0.654359,63.3795,163.682
2.98,405.193,259.455,103.086,16.4923,-0.654634,-0.0137788,163.568
3,404.877,259.548,103.415,16.4584,-1.69344,-51.9405,163.454
3.02,404.562,259.642,103.745,16.4682,0.490912,109.218,163.344
3.04,404.247,259.737,104.073,16.4203,-2.39514,-144.303,163.234
3.06,403.932,259.832,104.402,16.4347,0.721419,155.828,163.124
3.08,403.62,259.928,104.728,16.3446,-4.50704,-261.423,163.022
3.1,403.307,260.024,105.055,16.3446,0.000130666,225.358,162.92
3.12,402.995,260.119,105.382,16.3446,-6.36247e-05,-0.00971455,162.818
3.14,402.684,260.216,105.708,16.2939,-2.53575,-126.784,162.721
3.16,402.374,260.312,106.033,16.233,-3.04197,-25.3111,162.625
3.18,402.064,260.41,106.358,16.2349,0.0921353,156.705,162.53
3.2,401.754,260.507,106.682,16.2218,-0.654501,-37.3318,162.436
3.22,401.446,260.605,107.006,16.1845,-1.86376,-60.4631,162.346
3.24,401.137,260.704,107.33,16.1976,0.654492,125.913,162.255
3.26,400.829,260.803,107.654,16.1997,0.107295,-27.3598,162.165
3.28,400.524,260.901,107.974,16.0343,-8.26998,-418.864,162.084
3.3,400.218,261.001,108.295,16.0498,0.771671,452.082,162.003
3.32,399.912,261.1,108.617,16.0973,2.37716,80.2745,161.922
3.34,399.608,261.2,108.937,15.9974,-4.99507,-368.611,161.845
3.36,399.305,261.3,109.257,15.9868,-0.529702,223.268,161.77
3.38,399.001,261.4,109.577,15.9999,0.654523,59.2112,161.694
3.4,398.698,261.5,109.895,15.9263,-3.68279,-216.866,161.62
3.42,398.396,261.601,110.214,15.924,-0.111882,178.545,161.551
3.44,398.094,261.702,110.533,15.9371,0.654485,38.3184,161.481
3.46,397.792,261.804,110.851,15.9056,-1.57455,-111.452,161.411
3.48,397.493,261.904,111.166,15.7719,-6.6873,-255.637,161.35
3.5,397.194,262.006,111.482,15.8039,1.60104,414.417,161.289
3.52,396.895,262.107,111.798,15.7878,-0.804151,-120.259,161.228
3.54,396.596,262.209,112.114,15.7777,-0.504683,14.9734,161.169
3.56,396.298,262.311,112.429,15.7646,-0.654481,-7.48991,161.111
3.58,396,262.413,112.744,15.7515,-0.654518,-0.00184821,161.054
3.6,395.702,262.515,113.059,15.7416,-0.497232,7.86431,160.999
3.62,395.407,262.616,113.371,15.5995,-7.10416,-330.347,160.95
3.64,395.111,262.72,113.684,15.6794,3.9963,555.023,160.901
3.66,394.816,262.822,113.997,15.6158,-3.18192,-358.911,160.852
3.68,394.521,262.924,114.309,15.6107,-0.255255,146.333,160.807
3.7,394.227,263.027,114.62,15.5668,-2.19547,-97.0106,160.763
3.72,393.933,263.129,114.932,15.5799,0.654515,142.499,160.718
3.74,393.64,263.232,115.242,15.5275,-2.61799,-163.625,160.677
3.76,393.347,263.335,115.552,15.5048,-1.13433,74.1832,160.639
3.78,393.055,263.438,115.862,15.5013,-0.174702,47.9814,160.6
3.8,392.762,263.541,116.172,15.4917,-0.479751,-15.2525,160.563
3.82,392.472,263.644,116.481,15.4263,-3.27249,-139.637,160.531
3.84,392.181,263.746,116.789,15.4263,-1.5467e-06,163.624,160.499
3.86,391.89,263.849,117.098,15.4394,0.65449,32.7246,160.466
3.88,391.601,263.953,117.405,15.3436,-4.79,-272.225,160.438
3.9,391.311,264.055,117.712,15.3739,1.51748,315.374,160.41
3.92,391.021,264.159,118.02,15.3907,0.836652,-34.0416,160.382
3.94,390.733,264.262,118.326,15.2912,-4.97207,-290.436,160.358
3.96,390.445,264.365,118.632,15.2859,-0.263909,235.408,160.338
3.98,390.158,264.467,118.937,15.2389,-2.35407,-104.508,160.318
4,389.87,264.57,119.242,15.2729,1.69957,202.682,160.299
4.02,389.584,264.673,119.546,15.2127,-3.00857,-235.407,160.281
4.04,389.298,264.775,119.85,15.1996,-0.654499,117.703,160.264
4.06,389.01,264.879,120.156,15.2766,3.85256,225.353,160.246
4.08,388.861,264.932,120.314,7.91254,-368.205,-18602.9,160.242
4.1,388.719,264.983,120.465,7.54936,-18.1593,17502.3,160.238
4.12,388.577,265.035,120.616,7.54936,3.90039e-07,907.963,160.234
4.14,388.436,265.085,120.766,7.51941,-1.49746,-74.8731,160.231
4.16,388.293,265.136,120.918,7.5964,3.84937,267.341,160.227
4.18,388.151,265.188,121.069,7.53627,-3.0064,-342.788,160.224
