"time","x","y","position","velocity","acceleration","jerk","heading"
0,504.182,280.734,0,0,0,0,-180
0.02,504.009,280.734,0.173215,8.66073,433.037,21651.8,-179.997
0.04,503.837,280.734,0.345167,8.59764,-3.1545,-21809.6,-179.993
0.06,503.665,280.734,0.517382,8.61073,0.654498,190.45,-179.99
0.08,503.493,280.734,0.689335,8.59764,-0.654498,-65.4498,-179.986
0.1,503.32,280.734,0.861549,8.61073,0.654498,65.4498,-179.983
0.12,503.094,280.734,1.08846,11.3453,136.728,6803.65,-179.975
0.14,502.681,280.734,1.50096,20.6251,463.992,16363.2,-179.954
0.16,502.269,280.734,1.9132,20.612,-0.654494,-23232.3,-179.932
0.18,501.756,280.733,2.42646,25.6634,252.567,12661.1,-179.891
0.2,501.222,280.732,2.95968,26.661,49.8819,-10134.2,-179.846
0.22,500.594,280.73,3.58758,31.3946,236.679,9339.88,-179.773
0.24,499.931,280.727,4.25081,33.1615,88.3457,-7416.69,-179.686
0.26,499.221,280.722,4.96107,35.5133,117.59,1462.24,-179.58
0.28,498.469,280.716,5.71302,37.5975,104.21,-669.047,-179.446
0.3,497.711,280.708,6.47075,37.8862,14.4325,-4488.85,-179.292
0.32,496.956,280.698,7.22605,37.7654,-6.03771,-1023.51,-179.121
0.34,496.205,280.685,7.97696,37.5452,-11.0093,-248.578,-178.933
0.36,495.459,280.67,8.72345,37.3246,-11.0327,-1.17294,-178.728
0.38,494.718,280.652,9.46425,37.0399,-14.2349,-160.109,-178.501
0.4,493.984,280.631,10.1992,36.7464,-14.672,-21.8541,-178.255
0.42,493.253,280.607,10.9307,36.5785,-8.39791,313.704,-177.992
0.44,492.527,280.58,11.657,36.313,-13.2749,-243.85,-177.712
0.46,491.805,280.549,12.3797,36.1353,-8.88301,219.595,-177.414
0.48,491.091,280.515,13.094,35.7147,-21.028,-607.249,-177.087
0.5,490.38,280.477,13.8068,35.6382,-3.82711,860.045,-176.757
0.52,489.672,280.436,14.5153,35.4245,-10.6856,-342.925,-176.406
0.54,488.971,280.389,15.2184,35.1577,-13.3387,-132.654,-176.037
0.56,488.27,280.338,15.9209,35.1227,-1.75073,579.397,-175.664
0.58,487.577,280.283,16.6161,34.762,-18.0354,-814.231,-175.262
0.6,486.886,280.223,17.3098,34.6845,-3.87232,708.152,-174.856
0.62,486.198,280.16,18.0003,34.5262,-7.91724,-202.246,-174.44
0.64,485.513,280.09,18.6897,34.4685,-2.88567,251.579,-174.017
0.66,484.827,280.016,19.3793,34.4815,0.649554,176.761,-173.593
0.68,484.144,279.937,20.0668,34.3762,-5.26363,-295.659,-173.166
0.7,483.458,279.852,20.7577,34.5427,8.32692,679.528,-172.749
0.72,482.772,279.762,21.4496,34.5965,2.68647,-282.023,-172.337
0.74,482.082,279.666,22.146,34.8198,11.1687,424.113,-171.939
0.76,481.386,279.565,22.8497,35.1851,18.262,354.661,-171.57
0.78,480.686,279.459,23.5579,35.4109,11.2899,-348.603,-171.223
0.8,479.976,279.347,24.2761,35.9097,24.9398,682.498,-170.908
0.82,479.258,279.23,25.0044,36.4133,25.1827,12.1443,-170.636
0.84,478.528,279.108,25.7436,36.9614,27.4036,111.046,-170.404
0.86,477.791,278.982,26.4915,37.3922,21.5406,-293.151,-170.203
0.88,477.036,278.85,27.2581,38.3286,46.8191,1263.92,-170.076
0.9,476.267,278.715,28.0388,39.0396,35.5509,-563.407,-170.002
0.92,475.489,278.577,28.8292,39.5196,23.9977,-577.659,-169.964
0.94,474.698,278.436,29.6323,40.151,31.5725,378.738,-169.978
0.96,473.889,278.294,30.4542,41.0992,47.4077,791.761,-170.062
0.98,473.069,278.151,31.2864,41.6097,25.5254,-1094.12,-170.185
1,472.237,278.007,32.1305,42.2047,29.7506,211.259,-170.351
1.02,471.393,277.865,32.9862,42.7816,28.8466,-45.2009,-170.563
1.04,470.541,277.726,33.8503,43.207,21.2695,-378.854,-170.81
1.06,469.682,277.588,34.7203,43.5022,14.7574,-325.605,-171.077
1.08,468.81,277.453,35.6024,44.1017,29.9773,760.996,-171.389
1.1,467.934,277.323,36.4879,44.2738,8.60467,-1068.63,-171.717
1.12,467.053,277.198,37.3774,44.4778,10.1991,79.7241,-172.059
1.14,466.169,277.077,38.2697,44.6134,6.78118,-170.899,-172.414
1.16,465.28,276.961,39.166,44.8169,10.1758,169.733,-172.779
1.18,464.39,276.851,40.0629,44.8445,1.37979,-439.802,-173.149
1.2,463.499,276.747,40.96,44.8539,0.470779,-45.4507,-173.522
1.22,462.606,276.649,41.8586,44.9327,3.93531,173.227,-173.896
1.24,461.715,276.556,42.7548,44.8093,-6.16624,-505.078,-174.266
1.26,460.823,276.47,43.6511,44.8134,0.202475,318.436,-174.631
1.28,459.932,276.389,44.5456,44.7272,-4.30769,-225.508,-174.995
1.3,459.043,276.313,45.4379,44.6155,-5.58458,-63.845,-175.348
1.32,458.155,276.244,46.3287,44.5363,-3.96273,81.0925,-175.693
1.34,457.269,276.18,47.217,44.4166,-5.98569,-101.148,-176.03
1.36,456.385,276.121,48.1026,44.2814,-6.75771,-38.601,-176.358
1.38,455.503,276.068,48.9861,44.1715,-5.49347,63.212,-176.675
1.4,454.625,276.019,49.8652,43.9558,-10.7858,-264.614,-176.98
1.42,453.749,275.975,50.7424,43.8616,-4.71279,303.648,-177.275
1.44,452.875,275.936,51.6178,43.7711,-4.52255,9.51209,-177.56
1.46,452.004,275.901,52.4895,43.5818,-9.46758,-247.252,-177.835
1.48,451.136,275.87,53.3578,43.4172,-8.22918,61.9201,-178.098
1.5,450.27,275.843,54.2239,43.3051,-5.60378,131.27,-178.349
1.52,449.407,275.821,55.0875,43.1815,-6.17786,-28.7041,-178.591
1.54,448.546,275.801,55.9482,43.0339,-7.38221,-60.2173,-178.822
1.56,447.689,275.785,56.8055,42.863,-8.54469,-58.124,-179.044
1.58,446.834,275.772,57.6606,42.7534,-5.48095,153.187,-179.254
1.6,445.982,275.763,58.5124,42.5943,-7.9524,-123.572,-179.452
1.62,445.133,275.756,59.3619,42.4751,-5.9608,99.58,-179.641
1.64,444.286,275.752,60.2086,42.3305,-7.23072,-63.496,-179.819
1.66,443.442,275.751,61.0528,42.2122,-5.91392,65.8398,-179.988
1.68,442.592,275.752,61.9025,42.4871,13.7445,982.919,179.822
1.7,441.742,275.756,62.7531,42.5269,1.98693,-587.876,179.629
1.72,440.895,275.764,63.6,42.3446,-9.11143,-554.918,179.45
1.74,440.051,275.773,64.4437,42.1886,-7.80395,65.3741,179.283
1.76,439.208,275.785,65.2868,42.1505,-1.901,295.148,179.119
1.78,438.372,275.798,66.123,41.8117,-16.942,-752.048,178.981
1.8,437.536,275.815,66.959,41.8013,-0.518623,821.167,178.844
1.82,436.705,275.833,67.7903,41.5667,-11.7294,-560.537,178.725
1.84,435.879,275.851,68.617,41.3346,-11.6077,6.08445,178.62
1.86,435.053,275.872,69.4435,41.3215,-0.654394,547.664,178.52
1.88,434.235,275.894,70.2618,40.9183,-20.1583,-975.194,178.451
1.9,433.419,275.917,71.0781,40.8136,-5.23596,746.115,178.39
1.92,432.609,275.94,71.8879,40.4901,-16.1731,-546.859,178.35
1.94,431.804,275.963,72.6935,40.2783,-10.591,279.107,178.33
1.96,431.004,275.987,73.4941,40.0311,-12.3621,-88.5532,178.329
1.98,430.211,276.01,74.2871,39.6524,-18.9348,-328.638,178.353
2,429.426,276.033,75.072,39.2442,-20.4085,-73.682,178.412
2.02,428.647,276.054,75.8517,38.981,-13.1603,362.411,178.491
2.04,427.876,276.073,76.6226,38.5488,-21.6109,-422.531,178.599
2.06,427.117,276.092,77.3817,37.9562,-29.6321,-401.061,178.756
2.08,426.367,276.107,78.1327,37.5471,-20.4535,458.93,178.944
2.1,425.625,276.12,78.8739,37.0609,-24.3101,-192.829,179.169
2.12,424.898,276.129,79.6015,36.3772,-34.1839,-493.692,179.446
2.14,424.183,276.134,80.3169,35.7731,-30.2068,198.855,179.769
2.16,423.476,276.135,81.0235,35.3269,-22.3076,394.961,-179.874
2.18,422.784,276.132,81.7153,34.5944,-36.6282,-716.031,-179.461
2.2,422.109,276.122,82.3903,33.7468,-42.3781,-287.497,-178.983
2.22,421.446,276.108,83.0536,33.1654,-29.071,665.358,-178.464
2.24,420.791,276.088,83.7087,32.7546,-20.5376,426.668,-177.909
2.26,420.148,276.061,84.3528,32.2087,-27.2985,-338.043,-177.315
2.28,419.521,276.029,84.9807,31.392,-40.8325,-676.7,-176.657
2.3,418.915,275.99,85.5877,30.3491,-52.1459,-565.67,-175.99
2.32,418.344,275.947,86.1606,28.6472,-85.0934,-1647.38,-175.34
2.34,417.808,275.9,86.6981,26.8755,-88.5879,-174.723,-174.713
2.36,417.338,275.854,87.1705,23.6207,-162.737,-3707.47,-174.142
2.38,416.909,275.808,87.6022,21.5839,-101.842,3044.78,-173.624
2.4,416.519,275.763,87.995,19.6406,-97.1622,233.976,-173.152
2.42,416.189,275.722,88.327,16.5976,-152.153,-2749.55,-172.757
2.44,415.902,275.684,88.6169,14.4953,-105.114,2351.96,-172.416
2.46,415.614,275.645,88.9068,14.4954,0.00462998,5255.93,-172.074
2.48,415.383,275.612,89.1409,11.7078,-139.38,-6969.25,-171.807
2.5,415.154,275.579,89.3719,11.5491,-7.93459,6572.29,-171.543
2.52,414.926,275.544,89.6025,11.5274,-1.08461,342.499,-171.28
2.54,414.695,275.509,89.8368,11.7153,9.39519,523.99,-171.027
2.56,414.462,275.471,90.072,11.7601,2.24098,-357.711,-170.78
2.58,414.23,275.433,90.3075,11.7732,0.654629,-79.3176,-170.534
2.6,413.997,275.394,90.544,11.8288,2.77953,106.245,-170.291
2.62,413.762,275.352,90.7823,11.9144,4.27813,74.9301,-170.057
2.64,413.526,275.311,91.0218,11.9767,3.11608,-58.1029,-169.824
2.66,413.291,275.268,91.2605,11.932,-2.2326,-267.434,-169.59
2.68,413.054,275.224,91.5022,12.0851,7.6535,494.305,-169.367
2.7,412.817,275.178,91.7436,12.0714,-0.684766,-416.913,-169.146
2.72,412.579,275.132,91.986,12.1168,2.27174,147.825,-168.924
2.74,412.337,275.085,92.232,12.2999,9.15184,344.005,-168.719
2.76,412.093,275.036,92.4808,12.4405,7.03287,-105.949,-168.524
2.78,411.849,274.985,92.7302,12.4736,1.65478,-268.904,-168.33
2.8,411.604,274.934,92.9805,12.5129,1.96302,15.412,-168.139
2.82,411.358,274.882,93.2323,12.592,3.95629,99.6635,-167.957
2.84,411.11,274.829,93.4854,12.6513,2.9659,-49.5198,-167.775
2.86,410.864,274.775,93.7376,12.613,-1.91484,-244.037,-167.593
2.88,410.614,274.72,93.994,12.8201,10.3549,613.489,-167.426
2.9,410.364,274.663,94.2497,12.7823,-1.89316,-612.405,-167.259
2.92,410.114,274.606,94.5068,12.8552,3.64646,276.981,-167.093
2.94,409.86,274.548,94.7666,12.9897,6.72608,153.981,-166.941
2.96,409.605,274.488,95.0289,13.1188,6.45349,-13.6298,-166.798
2.98,409.349,274.428,95.2918,13.1433,1.22547,-261.401,-166.656
3,409.093,274.366,95.5554,13.1811,1.88792,33.1226,-166.516
3.02,408.834,274.304,95.8211,13.2844,5.16835,164.022,-166.383
3.04,408.577,274.241,96.0858,13.2359,-2.42918,-379.876,-166.25
3.06,408.32,274.178,96.3503,13.2228,-0.654341,88.7418,-166.116
3.08,408.058,274.112,96.6205,13.5086,14.2909,747.264,-166.002
3.1,407.796,274.047,96.8906,13.5086,-0.000243306,-714.559,-165.888
3.12,407.534,273.981,97.1611,13.5217,0.654581,32.7412,-165.775
3.14,407.27,273.914,97.4336,13.6255,5.19361,226.952,-165.669
3.16,407.005,273.845,97.7074,13.6903,3.23808,-97.7764,-165.567
3.18,406.74,273.777,97.9805,13.655,-1.76618,-250.213,-165.466
3.2,406.475,273.707,98.2546,13.7068,2.59347,217.983,-165.368
3.22,406.207,273.638,98.5316,13.8468,6.99999,220.326,-165.277
3.24,405.94,273.568,98.8078,13.8116,-1.76405,-438.202,-165.187
3.26,405.673,273.497,99.084,13.8112,-0.0168954,87.3578,-165.096
3.28,405.403,273.424,99.3635,13.9722,8.04922,403.306,-165.02
3.3,405.132,273.352,99.6441,14.0338,3.07742,-248.59,-164.946
3.32,404.861,273.278,99.9251,14.0466,0.64417,-121.663,-164.871
3.34,404.59,273.205,100.206,14.0246,-1.10378,-87.3976,-164.799
3.36,404.318,273.131,100.488,14.099,3.7216,241.269,-164.728
3.38,404.047,273.057,100.769,14.0639,-1.75731,-273.946,-164.658
3.4,403.774,272.981,101.051,14.1295,3.28114,251.923,-164.592
3.42,403.498,272.905,101.338,14.3478,10.9181,381.848,-164.539
3.44,403.222,272.829,101.624,14.2996,-2.40969,-666.389,-164.486
3.46,402.947,272.752,101.91,14.2866,-0.654473,87.7607,-164.432
3.48,402.671,272.675,102.197,14.3392,2.63432,164.44,-164.381
3.5,402.396,272.598,102.482,14.278,-3.06143,-284.787,-164.329
3.52,402.12,272.52,102.769,14.3392,3.06142,306.142,-164.278
3.54,401.841,272.441,103.058,14.4575,5.91457,142.658,-164.235
3.56,401.562,272.363,103.349,14.5094,2.59396,-166.03,-164.197
3.58,401.284,272.284,103.638,14.4749,-1.72624,-216.01,-164.159
3.6,401.004,272.204,103.929,14.523,2.40473,206.549,-164.121
3.62,400.725,272.125,104.219,14.5142,-0.441257,-142.299,-164.086
3.64,400.445,272.044,104.51,14.5629,2.43654,143.89,-164.05
3.66,400.166,271.965,104.8,14.5142,-2.43652,-243.653,-164.015
3.68,399.883,271.884,105.094,14.6938,8.98147,570.899,-163.989
3.7,399.602,271.803,105.387,14.6588,-1.74804,-536.476,-163.964
3.72,399.32,271.722,105.68,14.6457,-0.654504,54.6771,-163.938
3.74,399.038,271.64,105.974,14.685,1.96349,130.9,-163.915
3.76,398.755,271.559,106.269,14.7331,2.40256,21.9534,-163.892
3.78,398.473,271.477,106.563,14.6989,-1.70636,-205.446,-163.869
3.8,398.19,271.395,106.857,14.7243,1.2673,148.683,-163.849
3.82,397.905,271.313,107.153,14.8028,3.92699,132.985,-163.835
3.84,397.621,271.23,107.449,14.8037,0.0416603,-194.267,-163.82
3.86,397.336,271.147,107.746,14.8167,0.654494,30.6417,-163.806
3.88,397.051,271.065,108.042,14.829,0.612851,-2.08215,-163.794
3.9,396.765,270.982,108.34,14.904,3.75096,156.906,-163.783
3.92,396.48,270.899,108.637,14.8429,-3.05482,-340.289,-163.771
3.94,396.283,270.841,108.843,10.2855,-227.873,-11240.9,-163.765
3.96,396.139,270.799,108.992,7.47382,-140.582,4364.55,-163.763
3.98,395.996,270.758,109.142,7.46073,-0.654498,6996.38,-163.76
4,395.852,270.716,109.291,7.47382,0.654498,65.4498,-163.758
4.02,395.709,270.674,109.44,7.47382,-1.43956e-08,-32.7249,-163.756
4.04,395.566,270.632,109.59,7.46073,-0.654498,-32.7249,-163.753
4.06,395.422,270.59,109.739,7.47382,0.654498,65.4498,-163.751
