"time","x","y","position","velocity","acceleration","jerk","heading"
0,514.143,303.193,0,0,0,0,-180
0.02,513.968,303.193,0.175356,8.76781,438.39,21919.5,-179.991
0.04,513.792,303.193,0.350712,8.76781,-1.43566e-07,-21919.5,-179.982
0.06,513.617,303.193,0.526069,8.76781,-2.86564e-07,-7.14989e-06,-179.973
0.08,513.441,303.193,0.702425,8.81781,2.5,125,-179.964
0.1,513.265,303.193,0.877781,8.76781,-2.5,-250,-179.955
0.12,513.032,303.193,1.11102,11.6618,144.699,7359.97,-179.935
0.14,512.598,303.192,1.54468,21.6831,501.065,17818.3,-179.879
0.16,512.166,303.191,1.97734,21.6331,-2.49998,-25178.2,-179.823
0.18,511.614,303.189,2.52936,27.6008,298.386,15044.3,-179.716
0.2,511.038,303.186,3.105,28.7819,59.0561,-11966.5,-179.599
0.22,510.343,303.18,3.80023,34.7619,298.997,11997,-179.411
0.24,509.598,303.171,4.54492,37.2345,123.63,-8768.34,-179.187
0.26,508.785,303.158,5.35802,40.6546,171.006,2368.77,-178.912
0.28,507.881,303.138,6.26215,45.2069,227.616,2830.52,-178.557
0.3,506.895,303.11,7.24918,49.3513,207.219,-1019.83,-178.119
0.32,505.828,303.07,8.31707,53.3944,202.156,-253.158,-177.591
0.34,504.676,303.016,9.47024,57.6585,213.202,552.269,-176.968
0.36,503.439,302.943,10.7091,61.945,214.325,56.1489,-176.242
0.38,502.115,302.847,12.0364,66.3639,220.947,331.122,-175.404
0.4,500.704,302.722,13.453,70.8286,223.234,114.335,-174.449
0.42,499.233,302.565,14.9323,73.9669,156.917,-3315.82,-173.381
0.44,497.745,302.378,16.4322,74.9951,51.4092,-5275.41,-172.237
0.46,496.244,302.157,17.9489,75.8359,42.0408,-468.425,-171.026
0.48,494.733,301.902,19.4812,76.6133,38.8674,-158.666,-169.756
0.5,493.215,301.609,21.0277,77.3242,35.5446,-166.141,-168.435
0.52,491.691,301.279,22.5869,77.9587,31.7256,-190.949,-167.06
0.54,490.166,300.909,24.1566,78.4883,26.4792,-262.323,-165.647
0.56,488.641,300.498,25.7357,78.9537,23.272,-160.359,-164.2
0.58,487.121,300.047,27.3208,79.2567,15.1517,-406.014,-162.728
0.6,485.609,299.555,28.9111,79.5149,12.9091,-112.129,-161.24
0.62,484.108,299.023,30.5036,79.6205,5.27969,-381.473,-159.741
0.64,482.621,298.452,32.0959,79.6198,-0.035215,-265.745,-158.241
0.66,481.152,297.843,33.6866,79.5345,-4.26741,-211.61,-156.746
0.68,479.7,297.198,35.2755,79.4442,-4.51161,-12.2101,-155.263
0.7,478.271,296.517,36.8584,79.1454,-14.9425,-521.542,-153.799
0.72,476.866,295.802,38.4352,78.8403,-15.2542,-15.5882,-152.361
0.74,475.484,295.057,40.0046,78.4702,-18.5032,-162.45,-150.95
0.76,474.129,294.283,41.5656,78.0462,-21.1997,-134.823,-149.571
0.78,472.801,293.481,43.1165,77.5482,-24.9024,-185.135,-148.229
0.8,471.501,292.656,44.6567,77.0086,-26.9776,-103.761,-146.929
0.82,470.229,291.807,46.1853,76.4315,-28.8566,-93.9481,-145.673
0.84,468.985,290.937,47.7038,75.9242,-25.3628,174.688,-144.459
0.86,467.768,290.05,49.2101,75.3164,-30.3934,-251.531,-143.287
0.88,466.579,289.145,50.7041,74.6983,-30.9064,-25.6487,-142.165
0.9,465.418,288.225,52.1857,74.0821,-30.8063,5.00453,-141.087
0.92,464.283,287.29,53.6558,73.5006,-29.0764,86.4935,-140.058
0.94,463.173,286.345,55.1134,72.8826,-30.8973,-91.0433,-139.072
0.96,462.089,285.389,56.5589,72.2742,-30.4202,23.8569,-138.135
0.98,461.029,284.423,57.9928,71.6947,-28.979,72.0602,-137.241
1,459.991,283.449,59.4168,71.198,-24.8358,207.158,-136.385
1.02,458.976,282.468,60.8279,70.5572,-32.0376,-360.089,-135.579
1.04,457.984,281.482,62.2271,69.9597,-29.8768,108.041,-134.818
1.06,457.01,280.489,63.6179,69.5393,-21.0189,442.894,-134.092
1.08,456.056,279.492,64.9978,68.9966,-27.1324,-305.673,-133.403
1.1,455.121,278.493,66.3666,68.4383,-27.916,-39.1807,-132.758
1.12,454.203,277.489,67.7257,67.9553,-24.1502,188.287,-132.152
1.14,453.303,276.484,69.0756,67.4977,-22.8811,63.4561,-131.578
1.16,452.419,275.477,70.4153,66.9836,-25.7032,-141.106,-131.043
1.18,451.549,274.469,71.7466,66.5645,-20.9572,237.301,-130.543
1.2,450.693,273.46,73.0702,66.1791,-19.2712,84.3013,-130.07
1.22,449.852,272.452,74.3826,65.6204,-27.9338,-433.13,-129.64
1.24,449.024,271.445,75.687,65.2223,-19.9028,401.548,-129.241
1.26,448.206,270.437,76.9847,64.8859,-16.8221,154.039,-128.868
1.28,447.401,269.431,78.2732,64.4211,-23.24,-320.897,-128.531
1.3,446.606,268.428,79.5527,63.9769,-22.2105,51.4754,-128.225
1.32,445.822,267.426,80.8252,63.6258,-17.5513,232.961,-127.949
1.34,445.046,266.428,82.0893,63.2023,-21.1782,-181.346,-127.705
1.36,444.28,265.433,83.3451,62.7928,-20.4717,35.3264,-127.492
1.38,443.522,264.441,84.5939,62.4405,-17.6159,142.789,-127.305
1.4,442.771,263.453,85.8344,62.0238,-20.8343,-160.921,-127.152
1.42,442.03,262.471,87.0647,61.515,-25.443,-230.435,-127.034
1.44,441.293,261.493,88.2889,61.2113,-15.1848,512.912,-126.943
1.46,440.564,260.522,89.5037,60.7362,-23.7559,-428.558,-126.886
1.48,439.84,259.558,90.7094,60.288,-22.4095,67.3229,-126.864
1.5,439.121,258.599,91.9076,59.9084,-18.9805,171.451,-126.871
1.52,438.409,257.65,93.0944,59.341,-28.3709,-469.522,-126.916
1.54,437.711,256.722,94.2559,58.0743,-63.3303,-1747.97,-127.002
1.56,437.044,255.838,95.3627,55.3381,-136.814,-3674.2,-127.116
1.58,436.416,255.008,96.4037,52.0541,-164.199,-1369.25,-127.254
1.6,435.825,254.235,97.3769,48.659,-169.755,-277.806,-127.42
1.62,435.273,253.515,98.2842,45.3618,-164.858,244.857,-127.608
1.64,434.757,252.848,99.1274,42.1605,-160.063,239.749,-127.81
1.66,434.276,252.23,99.9103,39.1482,-150.618,472.264,-128.02
1.68,433.828,251.659,100.636,36.2854,-143.139,373.945,-128.238
1.7,433.422,251.146,101.291,32.7436,-177.09,-1697.57,-128.461
1.72,433.054,250.684,101.881,29.4949,-162.437,732.692,-128.684
1.74,432.709,250.254,102.433,27.5973,-94.8767,3377.99,-128.907
1.76,432.418,249.895,102.895,23.0986,-224.936,-6502.95,-129.114
1.78,432.14,249.554,103.335,21.9984,-55.0094,8496.32,-129.315
1.8,431.927,249.295,103.67,16.7438,-262.733,-10386.2,-129.485
1.82,431.714,249.037,104.004,16.7052,-1.92945,13040.2,-129.655
1.84,431.526,248.81,104.299,14.7623,-97.1454,-4760.8,-129.813
1.86,431.358,248.61,104.56,13.062,-85.0127,606.635,-129.962
1.88,431.19,248.41,104.821,13.0489,-0.654696,4217.9,-130.112
1.9,431.023,248.212,105.081,12.9845,-3.2223,-128.38,-130.264
1.92,430.857,248.016,105.338,12.8466,-6.89489,-183.629,-130.429
1.94,430.69,247.821,105.594,12.8278,-0.937862,297.851,-130.595
1.96,430.522,247.625,105.852,12.8735,2.2818,160.983,-130.76
1.98,430.358,247.436,106.103,12.5621,-15.5653,-892.355,-130.943
2,430.192,247.245,106.355,12.6065,2.21768,889.149,-131.128
2.02,430.027,247.056,106.606,12.5442,-3.11471,-266.62,-131.312
2.04,429.862,246.87,106.855,12.4401,-5.20519,-104.524,-131.509
2.06,429.699,246.686,107.101,12.3092,-6.54476,-66.9782,-131.716
2.08,429.535,246.503,107.347,12.2809,-1.41685,256.395,-131.922
2.1,429.371,246.321,107.592,12.2488,-1.60112,-9.21327,-132.133
2.12,429.21,246.143,107.831,11.9761,-13.6358,-601.736,-132.362
2.14,429.048,245.965,108.072,12.0565,4.01932,882.758,-132.59
2.16,428.885,245.789,108.312,11.9698,-4.33683,-417.807,-132.819
2.18,428.725,245.617,108.547,11.776,-9.69022,-267.669,-133.068
2.2,428.565,245.446,108.781,11.6871,-4.44487,262.267,-133.321
2.22,428.405,245.276,109.015,11.6849,-0.108435,216.822,-133.574
2.24,428.246,245.11,109.245,11.4998,-9.25468,-457.312,-133.841
2.26,428.088,244.947,109.472,11.3629,-6.84713,120.377,-134.121
2.28,427.93,244.785,109.698,11.3043,-2.93077,195.818,-134.4
2.3,427.772,244.624,109.923,11.2476,-2.83247,4.91485,-134.686
2.32,427.618,244.469,110.142,10.9682,-13.9717,-556.959,-134.996
2.34,427.463,244.314,110.361,10.9328,-1.76891,610.138,-135.306
2.36,427.307,244.161,110.58,10.9465,0.687153,122.803,-135.615
2.38,427.155,244.013,110.792,10.5896,-17.8482,-926.765,-135.954
2.4,427.004,243.867,111.001,10.4904,-4.95932,644.442,-136.298
2.42,426.851,243.723,111.212,10.5068,0.822241,289.078,-136.641
2.44,426.703,243.582,111.416,10.232,-13.7434,-728.28,-137.005
2.46,426.556,243.446,111.617,10.0141,-10.8952,142.41,-137.386
2.48,426.408,243.311,111.817,10.0201,0.300722,559.794,-137.767
2.5,426.262,243.179,112.014,9.85558,-8.22519,-426.296,-138.158
2.52,426.123,243.054,112.201,9.34674,-25.4417,-860.827,-138.591
2.54,425.982,242.931,112.388,9.35537,0.431585,1293.67,-139.024
2.56,425.841,242.809,112.575,9.32748,-1.39486,-91.322,-139.457
2.58,425.706,242.694,112.751,8.82913,-24.9172,-1176.12,-139.926
2.6,425.57,242.582,112.928,8.82722,-0.0957364,1241.07,-140.399
2.62,425.435,242.469,113.103,8.78228,-2.24697,-107.562,-140.873
2.64,425.303,242.363,113.273,8.46338,-15.9447,-684.888,-141.373
2.66,425.176,242.261,113.436,8.17017,-14.6608,64.1971,-141.896
2.68,425.048,242.16,113.599,8.14751,-1.13315,676.382,-142.419
2.7,424.921,242.063,113.759,7.99065,-7.84264,-335.474,-142.953
2.72,424.802,241.974,113.908,7.44788,-27.1386,-964.799,-143.533
2.74,424.682,241.887,114.056,7.39893,-2.44746,1234.56,-144.113
2.76,424.563,241.8,114.203,7.38072,-0.910482,76.8488,-144.693
2.78,424.455,241.725,114.335,6.56535,-40.7687,-1992.91,-145.338
2.8,424.349,241.651,114.463,6.43175,-6.68002,1704.43,-145.992
2.82,424.242,241.579,114.593,6.4716,1.99266,433.634,-146.646
2.84,424.14,241.512,114.714,6.07727,-19.7165,-1085.46,-147.327
2.86,424.043,241.451,114.83,5.77828,-14.9494,238.354,-148.029
2.88,423.944,241.389,114.946,5.79699,0.93542,794.243,-148.732
2.9,423.849,241.333,115.056,5.52008,-13.8454,-739.04,-149.458
2.92,423.775,241.289,115.142,4.29582,-61.2132,-2368.39,-150.275
2.94,423.701,241.246,115.228,4.30799,0.608786,3091.1,-151.092
2.96,423.625,241.205,115.315,4.33077,1.13898,26.5095,-151.908
2.98,423.558,241.169,115.391,3.8069,-26.1935,-1366.62,-152.762
3,423.49,241.134,115.467,3.78253,-1.21866,1248.74,-153.621
3.02,423.424,241.101,115.541,3.72505,-2.87399,-82.7665,-154.481
3.04,423.371,241.076,115.599,2.90133,-41.1859,-1915.6,-155.406
3.06,423.333,241.058,115.641,2.10451,-39.841,67.245,-156.389
3.08,423.294,241.041,115.684,2.15415,2.48195,2116.15,-157.371
3.1,423.257,241.027,115.723,1.95388,-10.0133,-624.764,-158.368
3.12,423.235,241.017,115.748,1.20778,-37.3051,-1364.59,-159.42
3.14,423.212,241.008,115.772,1.24063,1.64231,1947.37,-160.472
3.16,423.188,240.999,115.798,1.26874,1.40573,-11.8286,-161.524
3.18,423.18,240.996,115.807,0.444492,-41.2125,-2130.91,-162.634
3.2,423.173,240.994,115.814,0.360779,-4.18562,1851.35,-163.752
3.22,423.166,240.991,115.822,0.388037,1.3629,277.426,-164.87
3.24,423.173,240.993,115.829,0.377374,-0.53314,-94.8019,-166.043
3.26,423.192,240.997,115.849,0.982656,30.2641,1539.86,-167.265
3.28,423.212,241.001,115.869,0.997728,0.753597,-1475.53,-168.486
3.3,423.233,241.005,115.89,1.0514,2.68378,96.509,-169.714
3.32,423.261,241.009,115.919,1.44627,19.7433,852.979,-170.968
3.34,423.289,241.013,115.947,1.40243,-2.19212,-1096.77,-172.222
3.36,423.317,241.017,115.975,1.40023,-0.110004,104.106,-173.476
3.38,423.354,241.02,116.012,1.8661,23.2937,1170.19,-174.763
3.4,423.392,241.023,116.05,1.9138,2.3848,-1045.45,-176.055
3.42,423.43,241.025,116.088,1.88528,-1.42602,-190.541,-177.347
3.44,423.469,241.027,116.128,1.97986,4.72913,307.757,-178.641
3.46,423.509,241.027,116.167,1.97605,-0.190528,-245.983,-179.938
3.48,423.548,241.027,116.207,1.97658,0.0265464,10.8537,178.765
3.5,423.586,241.025,116.245,1.90357,-3.65071,-183.863,177.473
3.52,423.62,241.024,116.279,1.69162,-10.5975,-347.338,176.196
3.54,423.654,241.021,116.313,1.70833,0.835718,571.66,174.92
3.56,423.689,241.018,116.347,1.72716,0.94157,5.29262,173.644
3.58,423.715,241.015,116.374,1.30873,-20.9214,-1093.15,172.397
3.6,423.74,241.012,116.399,1.26569,-2.15246,938.449,171.154
3.62,423.765,241.008,116.424,1.26128,-0.220467,96.5995,169.911
3.64,423.778,241.006,116.438,0.678442,-29.1417,-1446.06,168.716
3.66,423.78,241.006,116.439,0.083189,-29.7626,-31.0458,167.562
3.68,423.782,241.006,116.442,0.130342,2.35763,1606.01,166.407
3.7,423.781,241.006,116.443,0.0447134,-4.28141,-331.952,165.264
3.72,423.771,241.01,116.454,0.570492,26.2889,1528.52,164.162
3.74,423.759,241.013,116.466,0.602407,1.59576,-1234.66,163.061
3.76,423.748,241.018,116.478,0.582943,-0.973183,-128.447,161.959
3.78,423.717,241.029,116.511,1.66421,54.0633,2751.82,160.941
3.8,423.683,241.04,116.548,1.82615,8.09726,-2298.3,159.934
3.82,423.649,241.054,116.584,1.78867,-1.87433,-498.579,158.927
3.84,423.603,241.073,116.634,2.49987,35.5599,1871.71,157.971
3.86,423.547,241.097,116.695,3.07136,28.5749,-349.251,157.06
3.88,423.491,241.122,116.756,3.06444,-0.346111,-1446.05,156.148
3.9,423.433,241.149,116.82,3.18518,6.0371,319.16,155.246
3.92,423.365,241.181,116.895,3.7341,27.4458,1070.44,154.383
3.94,423.3,241.213,116.968,3.6725,-3.07995,-1526.29,153.519
3.96,423.234,241.247,117.042,3.68558,0.653974,186.696,152.656
3.98,423.141,241.296,117.147,5.2646,78.9508,3914.84,151.91
4,423.045,241.348,117.256,5.43872,8.70641,-3512.22,151.182
4.02,422.95,241.402,117.366,5.49169,2.64806,-302.918,150.454
4.04,422.852,241.459,117.479,5.67527,9.17903,326.549,149.741
4.06,422.751,241.519,117.596,5.84793,8.63322,-27.2905,149.042
4.08,422.651,241.58,117.713,5.83951,-0.421227,-452.722,148.343
4.1,422.548,241.646,117.835,6.12177,14.1134,726.731,147.664
4.12,422.427,241.724,117.98,7.20639,54.2309,2005.87,147.067
4.14,422.308,241.802,118.122,7.12182,-4.22869,-2922.98,146.469
4.16,422.189,241.883,118.266,7.19105,3.46161,384.515,145.871
4.18,422.063,241.969,118.419,7.63783,22.3388,943.861,145.306
4.2,421.938,242.057,118.571,7.63705,-0.0389564,-1118.89,144.746
4.22,421.813,242.147,118.725,7.68309,2.30189,117.042,144.186
4.24,421.682,242.243,118.888,8.17125,24.4083,1105.32,143.665
4.26,421.543,242.347,119.061,8.63537,23.2058,-60.1257,143.178
4.28,421.406,242.451,119.233,8.60229,-1.6541,-1243,142.69
4.3,421.268,242.557,119.407,8.71482,5.62681,364.045,142.209
4.32,421.126,242.668,119.587,8.98514,13.516,394.462,141.75
4.34,420.985,242.78,119.767,9.00788,1.13681,-618.961,141.291
4.36,420.846,242.893,119.947,8.99257,-0.7654,-95.1106,140.832
4.38,420.697,243.016,120.14,9.64051,32.3967,1658.1,140.426
4.4,420.546,243.141,120.336,9.79585,7.76741,-1231.46,140.027
4.42,420.397,243.268,120.532,9.78354,-0.615674,-419.154,139.628
4.44,420.244,243.399,120.733,10.0789,14.7696,769.262,139.252
4.46,420.089,243.534,120.939,10.3042,11.2653,-175.215,138.894
4.48,419.933,243.671,121.146,10.3371,1.6441,-481.058,138.536
4.5,419.778,243.809,121.354,10.3868,2.48578,42.0839,138.185
4.52,419.617,243.953,121.57,10.809,21.1062,931.02,137.864
4.54,419.458,244.099,121.786,10.8055,-0.175025,-1064.06,137.543
4.56,419.299,244.245,122.001,10.7655,-1.99723,-91.11,137.222
4.58,419.136,244.398,122.225,11.2,21.7254,1186.13,136.929
4.6,418.973,244.551,122.449,11.1925,-0.377884,-1105.16,136.641
4.62,418.809,244.706,122.674,11.2611,3.43407,190.598,136.353
4.64,418.645,244.864,122.902,11.3982,6.85403,170.998,136.081
4.66,418.477,245.026,123.135,11.6508,12.6312,288.856,135.823
4.68,418.31,245.189,123.368,11.6498,-0.0498974,-634.053,135.565
4.7,418.145,245.352,123.601,11.6439,-0.296215,-12.3159,135.312
4.72,417.974,245.522,123.842,12.0154,18.5723,943.427,135.082
4.74,417.805,245.691,124.081,11.9669,-2.42442,-1049.84,134.851
4.76,417.637,245.861,124.32,11.9801,0.662804,154.361,134.621
4.78,417.464,246.036,124.567,12.3037,16.1772,775.722,134.413
4.8,417.292,246.213,124.813,12.3218,0.906759,-763.524,134.209
4.82,417.12,246.39,125.06,12.3349,0.654295,-12.6232,134.006
4.84,416.947,246.57,125.31,12.4931,7.91217,362.894,133.815
4.86,416.772,246.753,125.563,12.6648,8.58362,33.5726,133.637
4.88,416.597,246.937,125.817,12.6879,1.15633,-371.364,133.458
4.9,416.422,247.122,126.071,12.719,1.55323,19.8446,133.284
4.92,416.245,247.31,126.329,12.9203,10.0661,425.646,133.128
4.94,416.068,247.5,126.589,12.9803,2.99585,-353.515,132.971
4.96,415.892,247.69,126.848,12.9462,-1.70212,-234.899,132.814
4.98,415.713,247.884,127.112,13.1949,12.4355,706.883,132.676
5,415.534,248.079,127.376,13.2239,1.45052,-549.251,132.54
5.02,415.356,248.273,127.64,13.1771,-2.34342,-189.697,132.403
5.04,415.176,248.471,127.907,13.3711,9.70118,602.23,132.278
5.06,414.995,248.67,128.177,13.4889,5.89054,-190.532,132.162
5.08,414.814,248.871,128.447,13.4793,-0.479614,-318.508,132.045
5.1,414.634,249.072,128.717,13.5113,1.60106,104.034,131.933
5.12,414.45,249.276,128.991,13.728,10.8346,461.675,131.835
5.14,414.268,249.481,129.266,13.7117,-0.816642,-582.56,131.738
5.16,414.085,249.686,129.54,13.7318,1.00797,91.2307,131.64
5.18,413.9,249.895,129.819,13.9585,11.3346,516.332,131.559
5.2,413.715,250.103,130.098,13.9473,-0.561843,-594.823,131.48
5.22,413.53,250.313,130.377,13.9516,0.216895,38.9369,131.401
5.24,413.344,250.524,130.659,14.0825,6.54491,316.401,131.332
5.26,413.157,250.738,130.944,14.2248,7.11462,28.4856,131.271
5.28,412.969,250.952,131.228,14.2003,-1.22407,-416.935,131.211
5.3,412.781,251.166,131.513,14.2903,4.49653,286.03,131.155
5.32,412.591,251.385,131.803,14.4799,9.4814,249.243,131.116
5.34,412.4,251.603,132.093,14.493,0.654487,-441.346,131.078
5.36,412.21,251.822,132.382,14.4799,-0.654498,-65.4492,131.039
5.38,412.038,252.02,132.645,13.1039,-68.7995,-3407.25,130.892
5.4,411.87,252.214,132.902,12.8618,-12.1082,2834.56,130.729
5.42,411.702,252.41,133.16,12.8996,1.89405,700.111,130.566
5.44,411.537,252.604,133.414,12.7168,-9.14018,-551.711,130.394
5.46,411.373,252.797,133.667,12.6633,-2.67584,323.217,130.215
5.48,411.211,252.99,133.92,12.618,-2.26807,20.3884,130.035
5.5,411.046,253.186,134.176,12.8133,9.76738,601.772,129.867
5.52,410.875,253.392,134.444,13.4087,29.7688,1000.07,129.744
5.54,410.704,253.599,134.712,13.3768,-1.59548,-1568.21,129.621
5.56,410.534,253.805,134.979,13.3637,-0.654618,47.0431,129.497
5.58,410.359,254.018,135.254,13.7763,20.6315,1064.31,129.404
5.6,410.184,254.232,135.531,13.8417,3.27233,-867.959,129.316
5.62,410.009,254.447,135.809,13.8674,1.28136,-99.5485,129.227
5.64,409.831,254.664,136.089,14.0119,7.22723,297.294,129.152
5.66,409.653,254.884,136.372,14.1762,8.21229,49.2528,129.089
5.68,409.474,255.104,136.656,14.1631,-0.654533,-443.341,129.025
5.7,409.295,255.326,136.941,14.2625,4.97264,281.359,128.971
5.72,409.108,255.557,137.238,14.8564,29.6955,1236.14,128.957
5.74,408.923,255.787,137.534,14.773,-4.1701,-1693.28,128.942
5.76,408.736,256.018,137.831,14.8564,4.1701,417.01,128.928
5.78,408.547,256.252,138.131,15.0348,8.91987,237.489,128.933
5.8,408.357,256.488,138.434,15.1313,4.8246,-204.763,128.94
5.82,408.168,256.722,138.735,15.0741,-2.86111,-384.285,128.948
5.84,407.975,256.959,139.041,15.2626,9.42636,614.373,128.968
5.86,407.782,257.2,139.349,15.4272,8.22875,-59.8805,129
5.88,407.588,257.439,139.657,15.4066,-1.02926,-462.9,129.031
5.9,407.393,257.68,139.968,15.5113,5.23599,313.262,129.07
5.92,407.192,257.928,140.286,15.9433,21.5984,818.122,129.142
5.94,406.991,258.174,140.605,15.9176,-1.28538,-1144.19,129.215
5.96,406.789,258.422,140.924,15.9749,2.8628,207.409,129.287
5.98,406.584,258.672,141.248,16.1718,9.84517,349.118,129.377
6,406.377,258.923,141.573,16.2559,4.20447,-282.035,129.471
6.02,406.172,259.173,141.896,16.1724,-4.1735,-418.899,129.564
6.04,405.962,259.425,142.224,16.3932,11.04,760.676,129.669
6.06,405.752,259.679,142.554,16.4922,4.94937,-304.533,129.784
6.08,405.54,259.934,142.885,16.5372,2.25012,-134.962,129.9
6.1,405.327,260.188,143.217,16.5963,2.95626,35.3072,130.021
6.12,405.11,260.446,143.554,16.8722,13.7946,541.917,130.166
6.14,404.891,260.704,143.892,16.9045,1.61354,-609.053,130.311
6.16,404.673,260.962,144.23,16.9045,-0.000152607,-80.6849,130.456
6.18,404.45,261.223,144.573,17.1475,12.1524,607.626,130.62
6.2,404.225,261.483,144.917,17.1814,1.69663,-522.786,130.787
6.22,404,261.743,145.261,17.1945,0.654601,-52.1016,130.955
6.24,403.773,262.005,145.607,17.3189,6.21763,278.152,131.13
6.26,403.545,262.266,145.954,17.3613,2.12153,-204.805,131.314
6.28,403.314,262.527,146.303,17.4143,2.64852,26.3496,131.497
6.3,403.083,262.788,146.652,17.4536,1.96345,-34.2535,131.683
6.32,402.848,263.051,147.004,17.5934,6.99152,251.403,131.88
