"time","x","y","position","velocity","acceleration","jerk","heading"
0,502.206,304.898,0,0,0,0,-180
0.02,502.028,304.898,0.178498,8.92489,446.244,22312.2,-179.979
0.04,501.849,304.898,0.357257,8.93798,0.654497,-22279.5,-179.957
0.06,501.67,304.898,0.535755,8.92489,-0.654502,-65.4499,-179.936
0.08,501.491,304.898,0.715253,8.97489,2.49999,157.725,-179.915
0.1,501.312,304.898,0.894013,8.93798,-1.84551,-217.275,-179.893
0.12,501.074,304.898,1.13222,11.9105,148.626,7523.6,-179.854
0.14,500.628,304.897,1.57793,22.2852,518.736,18505.5,-179.752
0.16,500.184,304.895,2.02237,22.2223,-3.14549,-26094.1,-179.651
0.18,499.612,304.89,2.59404,28.5831,318.041,16059.3,-179.469
0.2,499.015,304.885,3.1909,29.843,62.9909,-12752.5,-179.271
0.22,498.271,304.873,3.93541,37.2257,369.137,15307.3,-178.895
0.24,497.47,304.855,4.73653,40.0558,141.506,-11381.5,-178.456
0.26,496.594,304.828,5.61282,43.8148,187.948,2322.1,-177.929
0.28,495.638,304.788,6.56937,47.8276,200.64,634.572,-177.284
0.3,494.638,304.735,7.57121,50.0916,113.203,-4371.81,-176.502
0.32,493.611,304.664,8.60069,51.4744,69.1408,-2203.13,-175.625
0.34,492.564,304.577,9.65148,52.5395,53.2535,-794.365,-174.666
0.36,491.498,304.468,10.7226,53.5535,50.6973,-127.811,-173.631
0.38,490.402,304.335,11.8266,55.2027,82.4626,1588.27,-172.473
0.4,489.28,304.174,12.9597,56.654,72.5636,-494.947,-171.197
0.42,488.139,303.985,14.117,57.8675,60.6755,-594.408,-169.835
0.44,486.983,303.763,15.2937,58.8354,48.3934,-614.103,-168.393
0.46,485.811,303.507,16.4932,59.9724,56.8528,422.971,-166.869
0.48,484.616,303.21,17.7245,61.5666,79.711,1142.91,-165.22
0.5,483.406,302.872,18.9807,62.8096,62.1458,-878.261,-163.479
0.52,482.191,302.491,20.2546,63.6958,44.3142,-891.58,-161.667
0.54,480.972,302.066,21.5451,64.5253,41.475,-141.956,-159.795
0.56,479.755,301.594,22.8504,65.2636,36.9131,-228.096,-157.865
0.58,478.541,301.076,24.1712,66.037,38.6721,87.9503,-155.873
0.6,477.333,300.509,25.5047,66.6749,31.8952,-338.845,-153.838
0.62,476.145,299.899,26.8408,66.8069,6.59685,-1264.92,-151.787
0.64,474.977,299.245,28.1788,66.9011,4.71071,-94.3072,-149.732
0.66,473.835,298.55,29.516,66.8615,-1.98028,-334.549,-147.682
0.68,472.723,297.82,30.846,66.499,-18.1247,-807.222,-145.655
0.7,471.647,297.056,32.1664,66.0182,-24.0418,-295.852,-143.666
0.72,470.608,296.264,33.4723,65.2935,-36.2335,-609.585,-141.736
0.74,469.61,295.45,34.7605,64.4128,-44.0358,-390.119,-139.869
0.76,468.651,294.614,36.0327,63.6091,-40.1822,192.684,-138.066
0.78,467.734,293.765,37.282,62.4642,-57.2451,-853.144,-136.351
0.8,466.858,292.905,38.5095,61.3771,-54.3586,144.323,-134.717
0.82,466.024,292.037,39.7131,60.1793,-59.8905,-276.594,-133.175
0.84,465.228,291.168,40.8915,58.9182,-63.0519,-158.071,-131.729
0.86,464.472,290.298,42.0449,57.6717,-62.3242,36.3856,-130.38
0.88,463.751,289.431,43.1715,56.3286,-67.1565,-241.617,-129.131
0.9,463.064,288.568,44.2756,55.2065,-56.1037,552.642,-127.969
0.92,462.407,287.709,45.3567,54.0539,-57.6336,-76.4957,-126.897
0.94,461.781,286.859,46.4124,52.7835,-63.5203,-294.338,-125.919
0.96,461.183,286.019,47.4435,51.5577,-61.2858,111.727,-125.037
0.98,460.611,285.189,48.4511,50.3777,-59.0027,114.154,-124.242
1,460.06,284.368,49.4403,49.4604,-45.8663,656.823,-123.522
1.02,459.531,283.559,50.4065,48.3092,-57.5602,-584.698,-122.889
1.04,459.024,282.764,51.3497,47.1606,-57.4274,6.63882,-122.34
1.06,458.532,281.981,52.2745,46.2405,-46.007,571.023,-121.864
1.08,458.058,281.21,53.179,45.2279,-50.6295,-231.128,-121.463
1.1,457.597,280.452,54.0663,44.3613,-43.3304,364.958,-121.132
1.12,457.153,279.71,54.9311,43.2443,-55.8482,-625.889,-120.883
1.14,456.719,278.984,55.7767,42.2798,-48.2245,381.182,-120.709
1.16,456.296,278.268,56.6084,41.5824,-34.8727,667.591,-120.589
1.18,455.883,277.567,57.422,40.6799,-45.1217,-512.448,-120.536
1.2,455.481,276.887,58.2123,39.5141,-58.289,-658.366,-120.574
1.22,455.089,276.223,58.9839,38.581,-46.658,581.551,-120.68
1.24,454.702,275.572,59.7411,37.8597,-36.065,529.65,-120.845
1.26,454.32,274.935,60.4832,37.1051,-37.7285,-83.1765,-121.065
1.28,453.948,274.319,61.2032,36.0008,-55.2162,-874.382,-121.372
1.3,453.584,273.725,61.8997,34.8247,-58.8032,-179.35,-121.767
1.32,453.224,273.149,62.5792,33.9748,-42.4942,815.449,-122.226
1.34,452.868,272.587,63.2442,33.2512,-36.1823,315.595,-122.744
1.36,452.515,272.045,63.8912,32.3503,-45.0456,-443.168,-123.326
1.38,452.174,271.533,64.506,30.7394,-80.5462,-1775.03,-124.033
1.4,451.838,271.041,65.1018,29.7889,-47.5228,1651.17,-124.816
1.42,451.506,270.57,65.6781,28.814,-48.7453,-61.1234,-125.668
1.44,451.178,270.119,66.2357,27.8798,-46.7096,101.785,-126.595
1.46,450.856,269.693,66.7701,26.7203,-57.9763,-563.334,-127.608
1.48,450.546,269.299,67.2707,25.033,-84.3619,-1319.28,-128.753
1.5,450.245,268.93,67.7477,23.8484,-59.2316,1256.52,-129.985
1.52,449.948,268.583,68.2044,22.8347,-50.6864,427.259,-131.299
1.54,449.658,268.261,68.6375,21.6561,-58.9272,-412.04,-132.701
1.56,449.378,267.964,69.0456,20.4068,-62.4679,-177.038,-134.198
1.58,449.116,267.702,69.4159,18.5109,-94.7943,-1616.32,-135.836
1.6,448.864,267.463,69.7637,17.3935,-55.8699,1946.22,-137.566
1.62,448.621,267.246,70.0894,16.2815,-55.5996,13.5148,-139.377
1.64,448.387,267.051,70.3937,15.2145,-53.3513,112.416,-141.269
1.66,448.162,266.877,70.6782,14.2256,-49.4445,195.337,-143.24
1.68,447.955,266.728,70.9329,12.7391,-74.3255,-1244.05,-145.321
1.7,447.757,266.596,71.1708,11.8914,-42.3843,1597.06,-147.468
1.72,447.565,266.478,71.3969,11.3072,-29.2108,658.677,-149.663
1.74,447.377,266.373,71.6122,10.7633,-27.1943,100.823,-151.895
1.76,447.192,266.279,71.8195,10.3653,-19.9002,364.706,-154.156
1.78,447.008,266.193,72.0226,10.1542,-10.5522,467.404,-156.438
1.8,446.819,266.116,72.2269,10.2156,3.06966,681.091,-158.715
1.82,446.623,266.044,72.4358,10.4462,11.5278,422.909,-160.972
1.84,446.416,265.978,72.6526,10.8391,19.6467,405.94,-163.199
1.86,446.198,265.917,72.8793,11.3339,24.7408,254.705,-165.388
1.88,445.963,265.861,73.1208,12.0755,37.0797,616.949,-167.522
1.9,445.708,265.809,73.3809,13.008,46.6218,477.105,-169.584
1.92,445.431,265.764,73.6612,14.0128,50.2389,180.851,-171.568
1.94,445.133,265.725,73.962,15.0412,51.4224,59.1744,-173.474
1.96,444.815,265.695,74.2816,15.9773,46.8044,-230.899,-175.312
1.98,444.475,265.672,74.6227,17.0552,53.8943,354.496,-177.064
2,444.108,265.659,74.9895,18.3393,64.2085,515.711,-178.717
2.02,443.717,265.657,75.3806,19.5553,60.7958,-170.637,179.721
2.04,443.305,265.665,75.7922,20.5821,51.3408,-472.75,178.237
2.06,442.877,265.684,76.2207,21.4272,42.257,-454.191,176.819
2.08,442.428,265.714,76.6713,22.5296,55.1206,643.181,175.485
2.1,441.95,265.758,77.1514,24.0036,73.6965,928.792,174.262
2.12,441.456,265.813,77.6484,24.8479,42.2194,-1573.85,173.105
2.14,440.949,265.88,78.1598,25.5712,36.1614,-302.901,172.003
2.16,440.427,265.958,78.687,26.3583,39.3558,159.721,170.958
2.18,439.879,266.05,79.2432,27.8099,72.5814,1661.28,170.03
2.2,439.317,266.154,79.8146,28.5718,38.0938,-1724.38,169.156
2.22,438.744,266.269,80.3986,29.202,31.5104,-329.172,168.329
2.24,438.158,266.394,80.9983,29.981,38.9495,371.957,167.565
2.26,437.552,266.532,81.6201,31.0904,55.4707,826.058,166.885
2.28,436.932,266.681,82.2574,31.866,38.7797,-834.552,166.263
2.3,436.322,266.833,82.8862,31.442,-21.1978,-2998.87,165.681
2.32,435.835,266.961,83.3898,25.181,-313.051,-14592.7,164.765
2.34,435.461,267.067,83.7781,19.411,-288.502,1227.47,163.572
2.36,435.124,267.17,84.1311,17.6498,-88.0585,10022.2,162.54
2.38,434.81,267.272,84.4606,16.4755,-58.7152,1467.16,161.634
2.4,434.518,267.371,84.7696,15.4532,-51.1142,380.049,160.842
2.42,434.266,267.461,85.0369,13.3651,-104.405,-2664.55,160.197
2.44,434.044,267.542,85.2735,11.8288,-76.8178,1379.38,159.653
2.46,433.823,267.626,85.5099,11.8178,-0.545696,3813.6,159.11
2.48,433.64,267.697,85.7053,9.76944,-102.42,-5093.72,158.693
2.5,433.462,267.767,85.8976,9.61512,-7.71601,4735.21,158.282
2.52,433.283,267.839,86.0899,9.61878,0.183383,394.969,157.872
2.54,433.098,267.915,86.2901,10.0099,19.5541,968.537,157.489
2.56,432.91,267.994,86.494,10.1915,9.08078,-523.667,157.124
2.58,432.722,268.074,86.6979,10.1978,0.31753,-438.163,156.758
2.6,432.534,268.156,86.9037,10.2897,4.59466,213.857,156.398
2.62,432.342,268.241,87.1131,10.4668,8.85612,213.073,156.05
2.64,432.151,268.326,87.3225,10.4749,0.40076,-422.768,155.703
2.66,431.961,268.413,87.5313,10.4368,-1.90416,-115.246,155.355
2.68,431.766,268.503,87.7465,10.7603,16.1748,903.947,155.032
2.7,431.571,268.594,87.9615,10.7492,-0.555845,-836.531,154.71
2.72,431.376,268.687,88.1776,10.805,2.78988,167.286,154.389
2.74,431.177,268.784,88.3986,11.0519,12.3485,477.933,154.087
2.76,430.975,268.883,88.6238,11.2571,10.257,-104.576,153.799
2.78,430.774,268.982,88.8482,11.2212,-1.79493,-602.598,153.51
2.8,430.572,269.084,89.0739,11.2865,3.26867,253.18,153.226
2.82,430.368,269.188,89.3029,11.4478,8.06228,239.681,152.956
2.84,430.164,269.292,89.532,11.4575,0.483264,-378.951,152.685
2.86,429.961,269.398,89.7607,11.4359,-1.0754,-77.9333,152.414
2.88,429.753,269.507,89.9959,11.7571,16.0601,856.777,152.164
2.9,429.546,269.617,90.2304,11.726,-1.55656,-880.835,151.915
2.92,429.339,269.728,90.465,11.7289,0.145692,85.1127,151.666
2.94,429.129,269.842,90.7045,11.9752,12.3138,608.405,151.434
2.96,428.916,269.958,90.9465,12.0992,6.19962,-305.709,151.213
2.98,428.704,270.075,91.1887,12.1102,0.549344,-282.514,150.991
3,428.492,270.193,91.4315,12.1431,1.64339,54.7021,150.773
3.02,428.278,270.314,91.6771,12.281,6.89489,262.575,150.567
3.04,428.064,270.435,91.923,12.2925,0.575429,-315.973,150.36
3.06,427.851,270.557,92.1685,12.2738,-0.933661,-75.4545,150.153
3.08,427.635,270.682,92.4184,12.4951,11.0635,599.86,149.961
3.1,427.418,270.808,92.6688,12.5201,1.25239,-490.557,149.769
3.12,427.203,270.934,92.9183,12.4769,-2.16064,-170.652,149.577
3.14,426.986,271.062,93.1706,12.6154,6.92465,454.265,149.395
3.16,426.767,271.192,93.4248,12.707,4.58098,-117.184,149.22
3.18,426.548,271.323,93.6794,12.7326,1.27828,-165.135,149.045
3.2,426.33,271.454,93.9345,12.7547,1.10604,-8.61231,148.873
3.22,426.111,271.587,94.1908,12.8166,3.09626,99.511,148.709
3.24,425.891,271.721,94.4477,12.8426,1.29788,-89.9188,148.545
3.26,425.672,271.855,94.7051,12.8687,1.30396,0.304075,148.381
3.28,425.452,271.992,94.9637,12.9309,3.11084,90.3439,148.223
3.3,425.232,272.128,95.2226,12.944,0.654463,-122.819,148.066
3.32,425.013,272.265,95.4811,12.9279,-0.800552,-72.7508,147.909
3.34,424.793,272.404,95.741,12.9938,3.29299,204.677,147.755
3.36,424.573,272.542,96.0014,13.02,1.30919,-99.1899,147.603
3.38,424.354,272.683,96.2618,13.0183,-0.0840303,-69.6611,147.45
3.4,424.134,272.823,96.5221,13.0176,-0.0361843,2.3923,147.299
3.42,423.915,272.964,96.783,13.0426,1.25016,64.3172,147.149
3.44,423.696,273.106,97.0441,13.0557,0.654266,-29.7947,147
3.46,423.477,273.249,97.3046,13.0279,-1.38778,-102.102,146.85
3.48,423.259,273.391,97.5652,13.0279,-5.19134e-05,69.3866,146.7
3.5,423.042,273.534,97.8252,13.0005,-1.37195,-68.5948,146.549
3.52,422.824,273.679,98.0866,13.0698,3.46396,241.795,146.398
3.54,422.608,273.822,98.3461,12.9734,-4.8199,-414.193,146.246
3.56,422.393,273.967,98.6056,12.975,0.0806444,245.027,146.092
3.58,422.177,274.112,98.8656,13.0029,1.39539,65.7374,145.938
3.6,421.962,274.258,99.1254,12.9898,-0.654196,-102.479,145.783
3.62,421.749,274.403,99.3833,12.8959,-4.6944,-202.01,145.625
3.64,421.535,274.55,99.6426,12.9654,3.47514,408.477,145.467
3.66,421.322,274.697,99.9011,12.9242,-2.06062,-276.788,145.309
3.68,421.111,274.843,100.158,12.8461,-3.90649,-92.2935,145.146
3.7,420.9,274.991,100.416,12.8747,1.42973,266.811,144.983
3.72,420.689,275.138,100.673,12.8747,0.000347371,-71.4691,144.82
3.74,420.481,275.287,100.929,12.8114,-3.16312,-158.173,144.654
3.76,420.272,275.435,101.186,12.8129,0.0723889,161.775,144.485
3.78,420.064,275.584,101.441,12.7721,-2.03668,-105.454,144.316
3.8,419.857,275.733,101.696,12.7344,-1.88504,7.58226,144.145
3.82,419.651,275.883,101.951,12.7538,0.969752,142.74,143.971
3.84,419.445,276.032,102.205,12.7114,-2.12318,-154.647,143.796
3.86,419.241,276.183,102.459,12.7028,-0.429792,84.6696,143.622
3.88,419.036,276.333,102.713,12.6906,-0.605712,-8.79601,143.444
3.9,418.834,276.484,102.966,12.64,-2.5302,-96.2245,143.266
3.92,418.63,276.636,103.22,12.71,3.49881,301.451,143.088
3.94,418.428,276.789,103.473,12.6471,-3.14753,-332.317,142.909
3.96,418.227,276.942,103.725,12.634,-0.654848,124.634,142.729
3.98,418.025,277.095,103.979,12.6642,1.51204,108.344,142.549
4,417.826,277.249,104.231,12.6153,-2.44623,-197.913,142.369
4.02,417.625,277.403,104.484,12.6418,1.32603,188.613,142.188
4.04,417.426,277.559,104.736,12.6241,-0.883005,-110.452,142.007
4.06,417.227,277.715,104.99,12.6635,1.96859,142.58,141.826
4.08,417.029,277.871,105.242,12.611,-2.62625,-229.742,141.647
4.1,416.83,278.029,105.495,12.6731,3.10312,286.468,141.468
4.12,416.632,278.187,105.749,12.6731,0.000160211,-155.148,141.289
4.14,416.435,278.345,106.002,12.6394,-1.68418,-84.2171,141.111
4.16,416.237,278.505,106.256,12.7359,4.82444,325.431,140.935
4.18,416.041,278.665,106.509,12.6582,-3.88315,-435.38,140.759
4.2,415.844,278.826,106.763,12.7029,2.236,305.958,140.584
4.22,415.647,278.989,107.019,12.7608,2.89551,32.9758,140.411
4.24,415.451,279.152,107.274,12.7673,0.32169,-128.691,140.239
4.26,415.255,279.315,107.529,12.7288,-1.92096,-112.132,140.067
4.28,415.059,279.48,107.785,12.8264,4.87705,339.9,139.9
4.3,414.863,279.646,108.042,12.8335,0.354828,-226.111,139.734
4.32,414.668,279.812,108.298,12.7954,-1.90588,-113.035,139.568
4.34,414.472,279.979,108.556,12.8933,4.89497,340.043,139.407
4.36,414.276,280.147,108.814,12.9325,1.9638,-146.558,139.249
4.38,414.08,280.316,109.073,12.9272,-0.267015,-111.541,139.091
4.4,413.885,280.486,109.332,12.9484,1.05902,66.3017,138.935
4.42,413.689,280.658,109.592,13.0336,4.26304,160.201,138.783
4.44,413.492,280.83,109.853,13.0467,0.65447,-180.428,138.632
4.46,413.298,281.002,110.113,12.9586,-4.40813,-253.13,138.48
4.48,413.101,281.176,110.375,13.147,9.4195,691.382,138.337
4.5,412.905,281.351,110.638,13.1428,-0.208255,-481.388,138.194
4.52,412.71,281.527,110.901,13.1521,0.46336,33.5808,138.052
4.54,412.513,281.703,111.165,13.1972,2.25538,89.6007,137.916
4.56,412.317,281.882,111.431,13.2795,4.11467,92.9645,137.784
4.58,412.12,282.061,111.697,13.2795,-0.000327301,-205.75,137.652
4.6,411.924,282.24,111.963,13.3056,1.30918,65.4754,137.522
4.62,411.727,282.421,112.23,13.3679,3.11404,90.243,137.397
4.64,411.531,282.602,112.497,13.3311,-1.83924,-247.664,137.272
4.66,411.335,282.783,112.764,13.352,1.04312,144.118,137.146
4.68,411.137,282.967,113.034,13.5222,8.50851,373.269,137.033
4.7,410.939,283.152,113.305,13.5328,0.529526,-398.949,136.921
4.72,410.741,283.337,113.575,13.5328,-8.27267e-05,-26.4804,136.809
4.74,410.543,283.524,113.848,13.6324,4.98316,249.162,136.702
4.76,410.345,283.711,114.121,13.6484,0.798971,-209.21,136.599
4.78,410.147,283.899,114.393,13.6121,-1.81507,-130.702,136.496
4.8,409.948,284.088,114.667,13.709,4.84332,332.92,136.395
4.82,409.749,284.278,114.942,13.7513,2.11604,-136.364,136.3
4.84,409.55,284.467,115.217,13.7382,-0.654396,-138.522,136.204
4.86,409.352,284.658,115.492,13.7498,0.579425,61.691,136.109
4.88,409.151,284.852,115.772,13.9809,11.5538,548.719,136.029
4.9,408.95,285.046,116.051,13.9461,-1.73632,-664.507,135.949
4.92,408.75,285.24,116.33,13.9581,0.596147,116.624,135.87
4.94,408.55,285.436,116.61,13.9973,1.96342,68.3635,135.794
4.96,408.348,285.631,116.89,14.0235,1.30902,-32.72,135.72
4.98,408.147,285.828,117.171,14.0584,1.74469,21.7839,135.646
5,407.946,286.025,117.453,14.0881,1.48612,-12.9285,135.577
5.02,407.743,286.224,117.738,14.219,6.54495,252.941,135.518
5.04,407.54,286.423,118.022,14.2321,0.654514,-294.522,135.46
5.06,407.337,286.624,118.308,14.2672,1.75312,54.9302,135.402
5.08,407.133,286.826,118.595,14.3494,4.11239,117.964,135.353
5.1,406.929,287.028,118.882,14.3625,0.654457,-172.897,135.305
5.12,406.724,287.23,119.17,14.385,1.12371,23.4626,135.256
5.14,406.52,287.433,119.458,14.4187,1.68379,28.0041,135.215
5.16,406.314,287.638,119.749,14.5286,5.49899,190.76,135.177
5.18,406.108,287.842,120.039,14.5065,-1.10698,-330.298,135.14
5.2,405.901,288.049,120.331,14.6072,5.03395,307.046,135.108
5.22,405.692,288.257,120.625,14.7289,6.08415,52.51,135.088
5.24,405.484,288.465,120.92,14.7289,-7.14291e-06,-304.208,135.068
5.26,405.275,288.673,121.215,14.7643,1.76985,88.4927,135.048
5.28,405.165,288.783,121.37,7.74417,-351.005,-17638.7,135.04
5.3,405.06,288.888,121.518,7.41679,-16.3687,16731.8,135.034
5.32,404.956,288.993,121.667,7.4037,-0.654499,785.709,135.027
5.34,404.851,289.097,121.815,7.4037,-2.66722e-07,32.7249,135.02
5.36,404.746,289.202,121.963,7.41679,0.654498,32.7249,135.014
5.38,404.641,289.307,122.111,7.4037,-0.654499,-65.4498,135.007
