"time","x","y","position","velocity","acceleration","jerk","heading"
0,502.206,304.898,0,0,0,0,-180
0.02,502.027,304.898,0.179021,8.95107,447.553,22377.7,-179.977
0.04,501.848,304.898,0.357781,8.93798,-0.654501,-22410.4,-179.955
0.06,501.669,304.898,0.536802,8.95107,0.654494,65.4497,-179.932
0.08,501.489,304.898,0.716562,8.98798,1.8455,59.5501,-179.91
0.1,501.31,304.898,0.895583,8.95107,-1.84551,-184.55,-179.887
0.12,501.074,304.898,1.13196,11.8189,143.39,7261.8,-179.855
0.14,500.638,304.897,1.56824,21.814,499.756,17818.3,-179.789
0.16,500.203,304.895,2.00326,21.7511,-3.14552,-25145.1,-179.724
0.18,499.631,304.893,2.57491,28.5826,341.573,17236,-179.542
0.2,499.032,304.887,3.17361,29.9346,67.6016,-13698.6,-179.337
0.22,498.315,304.877,3.8914,35.8898,297.76,11507.9,-179.063
0.24,497.537,304.863,4.6694,38.8998,150.501,-7362.91,-178.712
0.26,496.681,304.841,5.52519,42.7896,194.49,2199.41,-178.263
0.28,495.756,304.809,6.45062,46.2715,174.097,-1019.66,-177.736
0.3,494.795,304.767,7.41254,48.0958,91.2117,-4144.25,-177.109
0.32,493.817,304.712,8.39266,49.0061,45.5146,-2284.85,-176.422
0.34,492.825,304.644,9.387,49.717,35.5478,-498.343,-175.679
0.36,491.818,304.561,10.3977,50.5368,40.9906,272.139,-174.873
0.38,490.792,304.462,11.4281,51.5179,49.0547,403.206,-173.992
0.4,489.756,304.345,12.4707,52.1326,30.7323,-916.119,-173.065
0.42,488.705,304.209,13.5301,52.9654,41.6399,545.381,-172.077
0.44,487.646,304.052,14.6009,53.5413,28.798,-642.097,-171.041
0.46,486.582,303.874,15.6794,53.9258,19.2239,-478.703,-169.977
0.48,485.5,303.673,16.7801,55.0353,55.4762,1812.61,-168.83
0.5,484.42,303.448,17.8836,55.1734,6.90419,-2428.6,-167.67
0.52,483.332,303.198,18.9993,55.7869,30.6743,1188.5,-166.465
0.54,482.243,302.924,20.1231,56.189,20.1066,-528.381,-165.225
0.56,481.155,302.625,21.2512,56.4042,10.7589,-467.385,-163.974
0.58,480.065,302.298,22.3889,56.888,24.1913,671.619,-162.683
0.6,478.981,301.947,23.5288,56.9922,5.20586,-949.272,-161.384
0.62,477.902,301.57,24.6716,57.1388,7.33055,106.234,-160.074
0.64,476.83,301.167,25.8172,57.2817,7.14603,-9.22581,-158.755
0.66,475.768,300.74,26.9618,57.2324,-2.4622,-480.412,-157.437
0.68,474.714,300.289,28.108,57.3071,3.73499,309.859,-156.117
0.7,473.676,299.814,29.2498,57.09,-10.8563,-729.564,-154.81
0.72,472.649,299.316,30.3902,57.0229,-3.35712,374.958,-153.51
0.74,471.638,298.798,31.5267,56.8255,-9.86681,-325.485,-152.225
0.76,470.644,298.261,32.6569,56.5066,-15.9462,-303.971,-150.964
0.78,469.664,297.702,33.7848,56.3964,-5.50894,521.864,-149.711
0.8,468.706,297.129,34.9008,55.7973,-29.9572,-1222.41,-148.503
0.82,467.763,296.538,36.0135,55.6388,-7.92481,1101.62,-147.309
0.84,466.84,295.93,37.1192,55.2833,-17.7746,-492.49,-146.141
0.86,465.938,295.313,38.2118,54.6314,-32.5975,-741.144,-145.023
0.88,465.05,294.678,39.3035,54.5828,-2.42723,1508.51,-143.909
0.9,464.187,294.036,40.3788,53.7645,-40.9146,-1924.37,-142.859
0.92,463.34,293.382,41.4491,53.5158,-12.435,1423.98,-141.826
0.94,462.51,292.717,42.5131,53.2012,-15.7312,-164.81,-140.816
0.96,461.699,292.045,43.5661,52.6497,-27.5747,-592.175,-139.851
0.98,460.909,291.367,44.6073,52.059,-29.5342,-97.9735,-138.927
1,460.136,290.682,45.6402,51.6476,-20.5718,448.121,-138.039
1.02,459.379,289.992,46.6645,51.2118,-21.7885,-60.8358,-137.182
1.04,458.639,289.296,47.6803,50.7921,-20.9869,40.0788,-136.358
1.06,457.915,288.596,48.6875,50.3597,-21.6184,-31.5776,-135.566
1.08,457.208,287.893,49.6844,49.8437,-25.8,-209.079,-134.813
1.1,456.515,287.187,50.6734,49.4485,-19.7592,302.041,-134.093
1.12,455.837,286.479,51.6539,49.0287,-20.992,-61.638,-133.403
1.14,455.173,285.767,52.6272,48.6631,-18.2803,135.583,-132.742
1.16,454.521,285.055,53.5925,48.2634,-19.9817,-85.0682,-132.11
1.18,453.884,284.342,54.5493,47.8433,-21.0059,-51.2119,-131.512
1.2,453.259,283.628,55.4984,47.4523,-19.5503,72.781,-130.943
1.22,452.645,282.914,56.4397,47.0665,-19.2928,12.8745,-130.4
1.24,452.042,282.198,57.3755,46.7925,-13.6989,279.694,-129.883
1.26,451.449,281.483,58.3043,46.4395,-17.6513,-197.62,-129.39
1.28,450.868,280.768,59.2257,46.0684,-18.5551,-45.1906,-128.928
1.3,450.296,280.055,60.1397,45.7008,-18.3779,8.86236,-128.491
1.32,449.733,279.342,61.0484,45.4317,-13.4532,246.232,-128.077
1.34,449.179,278.629,61.951,45.1339,-14.8894,-71.8087,-127.686
1.36,448.634,277.918,62.8471,44.8028,-16.5554,-83.301,-127.317
1.38,448.097,277.209,63.7368,44.4872,-15.7835,38.5983,-126.975
1.4,447.567,276.501,64.6205,44.1858,-15.0706,35.6412,-126.656
1.42,447.045,275.796,65.4981,43.8754,-15.5174,-22.3357,-126.36
1.44,446.53,275.093,66.3699,43.592,-14.1679,67.4713,-126.085
1.46,446.022,274.391,67.2363,43.3206,-13.571,29.8445,-125.831
1.48,445.52,273.693,68.0961,42.9885,-16.6066,-151.777,-125.601
1.5,445.023,272.997,68.9511,42.7511,-11.8683,236.916,-125.394
1.52,444.533,272.304,69.8002,42.4563,-14.7406,-143.619,-125.206
1.54,444.047,271.614,70.6438,42.1777,-13.9293,40.5682,-125.038
1.56,443.567,270.926,71.4829,41.9535,-11.2102,135.954,-124.889
1.58,443.092,270.242,72.3154,41.6256,-16.3952,-259.249,-124.766
1.6,442.62,269.563,73.1418,41.3222,-15.171,61.2097,-124.664
1.62,442.154,268.887,73.9633,41.0727,-12.4757,134.765,-124.583
1.64,441.691,268.215,74.7795,40.8109,-13.0899,-30.7115,-124.522
1.66,441.232,267.547,75.5896,40.5077,-15.1617,-103.589,-124.482
1.68,440.778,266.886,76.3922,40.128,-18.9805,-190.937,-124.471
1.7,440.328,266.229,77.1887,39.8268,-15.0609,195.976,-124.484
1.72,439.88,265.577,77.979,39.5128,-15.7005,-31.9786,-124.52
1.74,439.435,264.931,78.7638,39.2401,-13.6362,103.214,-124.579
1.76,438.993,264.29,79.5426,38.939,-15.0534,-70.8612,-124.661
1.78,438.554,263.657,80.3125,38.4948,-22.2127,-357.963,-124.775
1.8,438.118,263.031,81.0756,38.1568,-16.8994,265.663,-124.917
1.82,437.685,262.412,81.8309,37.7655,-19.5633,-133.195,-125.087
1.84,437.255,261.801,82.5786,37.3868,-18.9355,31.3942,-125.285
1.86,436.825,261.197,83.3198,37.0556,-16.5582,118.864,-125.514
1.88,436.4,260.604,84.0494,36.4811,-28.7252,-608.353,-125.782
1.9,435.978,260.02,84.7692,35.9903,-24.5442,209.052,-126.088
1.92,435.558,259.448,85.4792,35.5025,-24.3899,7.71652,-126.431
1.94,435.142,258.887,86.178,34.9377,-28.2386,-192.438,-126.817
1.96,434.73,258.339,86.8634,34.2698,-33.3962,-257.878,-127.254
1.98,434.319,257.804,87.5374,33.703,-28.3399,252.812,-127.736
2,433.914,257.284,88.197,32.9777,-36.2608,-396.044,-128.273
2.02,433.512,256.778,88.843,32.2994,-33.918,117.141,-128.861
2.04,433.114,256.29,89.473,31.4998,-39.9807,-303.136,-129.509
2.06,432.722,255.82,90.0854,30.6188,-44.0474,-203.333,-130.229
2.08,432.335,255.367,90.681,29.7801,-41.9363,105.554,-131.007
2.1,431.962,254.945,91.2442,28.1618,-80.9135,-1948.86,-131.911
2.12,431.593,254.539,91.793,27.4384,-36.1724,2237.06,-132.873
2.14,431.234,254.157,92.3171,26.2073,-61.5547,-1269.12,-133.927
2.16,430.896,253.813,92.7989,24.0884,-105.947,-2219.6,-135.139
2.18,430.569,253.494,93.2562,22.8648,-61.1797,2238.35,-136.45
2.2,430.262,253.207,93.6758,20.9809,-94.1929,-1650.66,-137.904
2.22,429.984,252.962,94.0473,18.5737,-120.359,-1308.3,-139.538
2.24,429.731,252.751,94.3761,16.4441,-106.482,693.814,-141.339
2.26,429.501,252.57,94.6688,14.631,-90.6531,791.47,-143.273
2.28,429.327,252.445,94.8835,10.7359,-194.754,-5205.05,-145.42
2.3,429.214,252.368,95.0203,6.84285,-194.654,4.99704,-147.672
2.32,429.138,252.321,95.1095,4.45955,-119.165,3774.45,-149.925
2.34,429.1,252.298,95.1537,2.20889,-112.533,331.623,-152.135
2.36,429.103,252.298,95.157,0.163404,-102.274,512.911,-154.208
2.38,429.118,252.304,95.1727,0.785553,31.1075,6669.1,-156.242
2.4,429.171,252.325,95.2301,2.86976,104.21,3655.13,-157.993
2.42,429.231,252.348,95.2945,3.22051,17.5379,-4333.61,-159.689
2.44,429.296,252.37,95.3631,3.42955,10.4517,-354.309,-161.338
2.46,429.375,252.396,95.4456,4.12371,34.7081,1212.82,-162.797
2.48,429.453,252.418,95.5267,4.0566,-3.35519,-1903.16,-164.255
2.5,429.532,252.439,95.6083,4.08244,1.29183,232.351,-165.714
2.52,429.631,252.462,95.7101,5.08984,50.37,2453.91,-167.247
2.54,429.732,252.484,95.8136,5.17395,4.20522,-2308.24,-168.79
2.56,429.835,252.502,95.9187,5.2555,4.07796,-6.363,-170.334
2.58,429.945,252.519,96.0298,5.55519,14.9843,545.317,-171.907
2.6,430.064,252.534,96.149,5.95913,20.1968,260.625,-173.506
2.62,430.181,252.545,96.2671,5.90513,-2.69985,-1144.83,-175.105
2.64,430.3,252.554,96.3868,5.98267,3.87689,328.837,-176.707
2.66,430.423,252.56,96.5098,6.1517,8.45171,228.741,-178.324
2.68,430.546,252.561,96.6328,6.15067,-0.0517974,-425.176,-179.94
2.7,430.669,252.559,96.7558,6.15136,0.0346319,4.32147,178.444
2.72,430.784,252.556,96.8705,5.73063,-21.0364,-1053.55,176.863
2.74,430.895,252.547,96.9824,5.59595,-6.73404,715.119,175.287
2.76,431.008,252.537,97.0953,5.64569,2.48721,461.062,173.712
2.78,431.106,252.525,97.1942,4.94721,-34.9241,-1870.56,172.187
2.8,431.193,252.512,97.2818,4.37935,-28.3933,326.539,170.705
2.82,431.28,252.497,97.3701,4.41286,1.67559,1503.44,169.223
2.84,431.36,252.481,97.4522,4.10785,-15.2505,-846.305,167.763
2.86,431.419,252.469,97.5121,2.99499,-55.6427,-2019.61,166.389
2.88,431.476,252.455,97.5713,2.96004,-1.74767,2694.75,165.015
2.9,431.535,252.439,97.6321,3.0396,3.97801,286.284,163.64
2.92,431.567,252.43,97.6655,1.66645,-68.6577,-3631.78,162.365
2.94,431.596,252.421,97.6955,1.50104,-8.27039,3019.36,161.104
2.96,431.625,252.411,97.7261,1.52984,1.44001,485.52,159.843
2.98,431.636,252.408,97.738,0.595521,-46.7159,-2407.8,158.649
3,431.634,252.408,97.74,0.102798,-24.6362,1103.99,157.512
3.02,431.632,252.41,97.7426,0.127556,1.23791,1293.7,156.375
3.04,431.623,252.414,97.753,0.520745,19.6594,921.077,155.271
3.06,431.583,252.435,97.7979,2.24501,86.213,3327.68,154.296
3.08,431.543,252.454,97.8426,2.23263,-0.618621,-4341.58,153.322
3.1,431.503,252.476,97.8879,2.26552,1.6442,113.141,152.347
3.12,431.445,252.508,97.9541,3.31244,52.3463,2535.1,151.455
3.14,431.384,252.542,98.0237,3.47776,8.266,-2204.01,150.575
3.16,431.324,252.577,98.0935,3.48937,0.580545,-384.273,149.695
3.18,431.254,252.619,98.1748,4.06774,28.9183,1416.89,148.86
3.2,431.177,252.667,98.2659,4.55368,24.2972,-231.056,148.062
3.22,431.099,252.716,98.3574,4.57713,1.17226,-1156.25,147.265
3.24,431.017,252.771,98.4562,4.93981,18.1339,848.084,146.495
3.26,430.912,252.841,98.5827,6.32532,69.2756,2557.08,145.833
3.28,430.808,252.913,98.7093,6.32691,0.079435,-3459.81,145.171
3.3,430.704,252.986,98.8362,6.34376,0.842513,38.1539,144.51
3.32,430.591,253.069,98.9762,7.00419,33.0214,1608.95,143.899
3.34,430.477,253.153,99.118,7.08719,4.15036,-1443.55,143.296
3.36,430.364,253.239,99.2599,7.09699,0.489913,-183.022,142.693
3.38,430.245,253.332,99.4115,7.58039,24.1697,1183.99,142.123
3.4,430.121,253.429,99.569,7.87246,14.6035,-478.312,141.582
3.42,429.997,253.529,99.7275,7.9267,2.71215,-594.568,141.041
3.44,429.871,253.632,99.891,8.17326,12.3281,480.798,140.517
3.46,429.732,253.748,100.072,9.05061,43.8674,1576.97,140.064
3.48,429.594,253.866,100.254,9.07669,1.30403,-2128.17,139.611
3.5,429.456,253.984,100.435,9.05793,-0.938179,-112.111,139.157
3.52,429.314,254.107,100.622,9.38792,16.4996,871.889,138.729
3.54,429.173,254.232,100.811,9.4313,2.16874,-716.543,138.305
3.56,429.033,254.359,101,9.44763,0.816509,-67.6115,137.88
3.58,428.886,254.493,101.199,9.94152,24.6949,1193.92,137.493
3.6,428.735,254.634,101.406,10.3544,20.6451,-202.488,137.138
3.62,428.582,254.775,101.614,10.3884,1.70105,-947.204,136.783
3.64,428.432,254.919,101.822,10.392,0.176958,-76.2047,136.434
3.66,428.276,255.068,102.038,10.8013,20.4675,1014.53,136.111
3.68,428.122,255.217,102.252,10.7162,-4.25625,-1236.19,135.787
3.7,427.968,255.368,102.467,10.7633,2.35356,330.49,135.464
3.72,427.808,255.527,102.693,11.2785,25.7631,1170.48,135.175
3.74,427.649,255.687,102.918,11.2862,0.383089,-1269,134.892
3.76,427.49,255.847,103.144,11.2864,0.00831258,-18.7388,134.609
3.78,427.328,256.012,103.375,11.5618,13.7694,688.056,134.347
3.8,427.163,256.181,103.611,11.7982,11.8227,-97.3389,134.103
3.82,427,256.351,103.848,11.8125,0.712939,-555.486,133.86
3.84,426.836,256.523,104.085,11.8532,2.03865,66.2856,133.62
3.86,426.669,256.699,104.327,12.1382,14.2461,610.374,133.399
3.88,426.503,256.875,104.569,12.0695,-3.43402,-884.008,133.178
3.9,426.338,257.053,104.812,12.1425,3.65042,354.222,132.957
3.92,426.167,257.238,105.064,12.6059,23.1686,975.91,132.774
3.94,425.995,257.423,105.317,12.6374,1.57487,-1079.69,132.596
3.96,425.823,257.611,105.571,12.7241,4.33689,138.101,132.419
3.98,425.652,257.8,105.826,12.7559,1.58763,-137.463,132.247
4,425.48,257.99,106.082,12.8008,2.24674,32.9552,132.081
4.02,425.309,258.18,106.338,12.8045,0.183867,-103.143,131.915
4.04,425.136,258.374,106.597,12.9595,7.75334,378.474,131.758
4.06,424.957,258.575,106.867,13.457,24.8709,855.876,131.639
4.08,424.779,258.775,107.135,13.4237,-1.66275,-1326.68,131.52
4.1,424.602,258.977,107.403,13.415,-0.437445,61.2652,131.4
4.12,424.425,259.178,107.671,13.374,-2.04837,-80.5463,131.274
4.14,424.249,259.378,107.937,13.3233,-2.53302,-24.2323,131.147
4.16,424.074,259.579,108.204,13.328,0.233251,138.313,131.02
4.18,423.952,259.72,108.391,9.34056,-199.371,-9980.23,130.588
4.2,423.876,259.811,108.509,5.90789,-171.634,1386.88,129.89
4.22,423.801,259.901,108.626,5.85009,-2.88979,8437.2,129.192
4.24,423.725,259.996,108.748,6.12031,13.511,820.038,128.513
4.26,423.639,260.107,108.889,7.0217,45.0692,1577.91,127.904
4.28,423.553,260.219,109.03,7.05242,1.5362,-2176.65,127.296
4.3,423.469,260.332,109.171,7.04137,-0.552276,-104.424,126.688
4.32,423.375,260.459,109.328,7.88567,42.2147,2138.35,126.146
4.34,423.281,260.59,109.489,8.04968,8.20044,-1700.71,125.614
4.36,423.189,260.721,109.65,8.03236,-0.866067,-453.326,125.082
4.38,423.092,260.86,109.819,8.47404,22.0843,1147.52,124.585
4.4,422.992,261.008,109.998,8.9317,22.8827,39.9156,124.121
4.42,422.893,261.156,110.176,8.90401,-1.38413,-1213.34,123.656
4.44,422.792,261.308,110.359,9.1297,11.2842,633.416,123.204
4.46,422.686,261.472,110.554,9.74124,30.5769,964.637,122.805
4.48,422.581,261.637,110.749,9.78439,2.15769,-1420.96,122.407
4.5,422.477,261.803,110.945,9.78678,0.119302,-101.919,122.008
4.52,422.366,261.981,111.154,10.47,34.1594,1702,121.662
4.54,422.256,262.161,111.366,10.591,6.05214,-1405.36,121.324
4.56,422.146,262.342,111.578,10.5818,-0.462029,-325.708,120.986
4.58,422.035,262.529,111.795,10.8576,13.7924,712.72,120.673
4.6,421.921,262.723,112.02,11.2447,19.354,278.079,120.383
4.62,421.808,262.916,112.243,11.181,-3.18529,-1126.96,120.092
4.64,421.696,263.112,112.469,11.2921,5.55335,436.932,119.81
4.66,421.579,263.318,112.706,11.8459,27.6948,1107.07,119.567
4.68,421.463,263.523,112.942,11.7835,-3.12075,-1540.78,119.323
4.7,421.348,263.729,113.178,11.8027,0.959224,203.999,119.079
4.72,421.229,263.946,113.425,12.3589,27.8091,1342.49,118.876
4.74,421.11,264.164,113.674,12.4265,3.37749,-1221.58,118.68
4.76,420.99,264.382,113.922,12.4265,0.000202938,-168.865,118.484
4.78,420.869,264.607,114.178,12.7761,17.4838,874.179,118.315
4.8,420.746,264.838,114.44,13.1082,16.6013,-44.1218,118.168
4.82,420.623,265.069,114.702,13.0977,-0.523002,-856.217,118.022
4.84,420.498,265.303,114.967,13.2417,7.19943,386.122,117.887
4.86,420.369,265.546,115.242,13.768,26.3178,955.919,117.794
4.88,420.242,265.791,115.518,13.776,0.39604,-1296.09,117.7
4.9,420.114,266.034,115.792,13.7448,-1.56057,-97.8306,117.607
4.92,419.98,266.291,116.082,14.4828,36.9032,1923.19,117.567
4.94,419.845,266.549,116.374,14.5875,5.23599,-1583.36,117.535
4.96,419.711,266.809,116.666,14.5958,0.411068,-241.246,117.502
4.98,419.571,267.077,116.969,15.1404,27.2323,1341.06,117.514
5,419.426,267.355,117.282,15.674,26.68,-27.6145,117.565
5.02,419.282,267.633,117.595,15.6378,-1.80919,-1424.46,117.615
5.04,419.137,267.911,117.909,15.7133,3.77268,279.093,117.669
5.06,418.99,268.193,118.227,15.8834,8.50841,236.787,117.736
5.08,418.841,268.474,118.544,15.8755,-0.395746,-445.208,117.804
5.1,418.694,268.755,118.862,15.8834,0.395439,39.5592,117.871
5.12,418.535,269.057,119.203,17.0536,58.5093,2905.69,118.029
5.14,418.372,269.361,119.548,17.2708,10.8572,-2382.61,118.2
5.16,418.209,269.665,119.892,17.2031,-3.38406,-712.061,118.371
5.18,418.043,269.971,120.241,17.4468,12.1864,778.525,118.557
5.2,417.874,270.281,120.594,17.6278,9.04786,-156.928,118.755
5.22,417.705,270.589,120.946,17.5839,-2.19414,-562.1,118.953
5.24,417.533,270.9,121.3,17.7344,7.52419,485.916,119.164
5.26,417.353,271.222,121.67,18.4637,36.4679,1447.18,119.427
5.28,417.171,271.543,122.039,18.4447,-0.949268,-1870.86,119.69
5.3,416.987,271.863,122.407,18.4392,-0.279289,33.4989,119.954
5.32,416.801,272.186,122.78,18.6473,10.4089,534.407,120.232
5.34,416.612,272.508,123.154,18.6806,1.66313,-437.286,120.512
5.36,416.421,272.829,123.527,18.6629,-0.882924,-127.303,120.792
5.38,416.228,273.151,123.903,18.7765,5.67767,328.03,121.082
5.4,416.033,273.474,124.28,18.8808,5.21463,-23.1523,121.378
5.42,415.836,273.796,124.657,18.8605,-1.01312,-311.387,121.675
5.44,415.637,274.115,125.034,18.8213,-1.95858,-47.2732,121.967
5.46,415.439,274.43,125.406,18.5963,-11.2521,-464.677,122.241
5.48,415.24,274.745,125.778,18.6099,0.68119,596.666,122.514
5.5,415.039,275.057,126.149,18.5656,-2.21502,-144.811,122.788
5.52,414.838,275.367,126.519,18.488,-3.88099,-83.2983,123.054
5.54,414.636,275.677,126.889,18.4733,-0.733397,157.38,123.32
5.56,414.432,275.985,127.258,18.4735,0.00773355,37.0565,123.585
5.58,414.233,276.284,127.618,18.0023,-23.5618,-1178.48,123.814
5.6,414.036,276.575,127.969,17.5691,-21.6573,95.2218,124.012
5.62,413.839,276.867,128.322,17.6105,2.07161,1186.45,124.21
5.64,413.64,277.157,128.673,17.558,-2.62587,-234.874,124.406
5.66,413.442,277.445,129.022,17.4795,-3.92612,-65.0125,124.596
5.68,413.242,277.733,129.373,17.521,2.07473,300.043,124.787
5.7,413.042,278.02,129.723,17.5085,-0.624493,-134.961,124.978
5.72,412.849,278.295,130.059,16.7869,-36.0813,-1772.84,125.117
5.74,412.656,278.569,130.394,16.7518,-1.75321,1716.4,125.248
5.76,412.463,278.841,130.727,16.6832,-3.42983,-83.831,125.38
5.78,412.272,279.11,131.057,16.4911,-9.60438,-308.727,125.492
5.8,412.082,279.375,131.383,16.2831,-10.4001,-39.7879,125.589
5.82,411.893,279.639,131.708,16.27,-0.654395,487.287,125.685
5.84,411.704,279.901,132.031,16.1509,-5.9571,-265.135,125.775
5.86,411.519,280.158,132.348,15.8237,-16.3625,-520.268,125.84
5.88,411.333,280.415,132.665,15.866,2.11823,924.035,125.906
5.9,411.147,280.672,132.982,15.8529,-0.654491,-138.636,125.971
5.92,410.963,280.924,133.295,15.6205,-11.6208,-548.315,126.016
5.94,410.78,281.176,133.605,15.5388,-4.08722,376.679,126.057
5.96,410.597,281.427,133.916,15.5278,-0.55011,176.855,126.098
5.98,410.415,281.675,134.224,15.41,-5.89046,-267.017,126.13
6,410.235,281.922,134.53,15.3052,-5.23598,32.724,126.154
6.02,410.054,282.17,134.837,15.3456,2.0193,362.764,126.178
6.04,409.874,282.417,135.142,15.266,-3.98279,-300.104,126.199
6.06,409.695,282.661,135.445,15.1351,-6.54499,-128.11,126.21
6.08,409.515,282.906,135.748,15.1646,1.47857,401.178,126.221
6.1,409.336,283.15,136.051,15.1351,-1.47857,-147.857,126.232
6.12,409.159,283.392,136.352,15.0304,-5.23599,-187.871,126.235
6.14,408.981,283.635,136.653,15.0468,0.824089,303.004,126.237
6.16,408.803,283.877,136.953,15.0173,-1.47859,-115.134,126.239
6.18,408.627,284.119,137.253,14.978,-1.96349,-24.2454,126.238
6.2,408.449,284.36,137.552,14.9683,-0.484903,73.9296,126.234
6.22,408.273,284.602,137.851,14.9518,-0.824093,-16.9595,126.231
6.24,408.096,284.843,138.15,14.9256,-1.309,-24.2452,126.226
6.26,407.919,285.083,138.448,14.929,0.169599,73.9298,126.219
6.28,407.744,285.324,138.746,14.8995,-1.4786,-82.4098,126.212
6.3,407.568,285.564,139.044,14.8995,-2.95376e-07,73.9298,126.205
6.32,407.392,285.805,139.342,14.8995,-2.27005e-07,3.41858e-06,126.198
6.34,407.216,286.045,139.64,14.8995,-1.58157e-07,3.44239e-06,126.191
