"time","x","y","position","velocity","acceleration","jerk","heading"
0,514.143,303.193,0,0,0,0,-180
0.02,513.968,303.193,0.175356,8.76781,438.39,21919.5,-179.991
0.04,513.792,303.193,0.350712,8.76781,-1.43566e-07,-21919.5,-179.982
0.06,513.617,303.193,0.525807,8.75472,-0.654499,-32.7249,-179.974
0.08,513.441,303.193,0.702163,8.81781,3.1545,190.45,-179.965
0.1,513.265,303.193,0.877519,8.76781,-2.5,-282.725,-179.956
0.12,513.033,303.193,1.11049,11.6487,144.045,7327.25,-179.937
0.14,512.599,303.192,1.54363,21.6569,500.41,17818.3,-179.883
0.16,512.167,303.191,1.97603,21.62,-1.84548,-25112.8,-179.828
0.18,511.616,303.189,2.527,27.5485,296.422,14913.4,-179.725
0.2,511.042,303.186,3.10133,28.7165,58.4016,-11901,-179.613
0.22,510.348,303.18,3.795,34.6833,298.343,11997,-179.431
0.24,509.605,303.173,4.53758,37.1292,122.294,-8802.44,-179.215
0.26,508.795,303.159,5.34806,40.5237,169.724,2371.52,-178.95
0.28,507.895,303.141,6.24877,45.0357,225.599,2793.73,-178.608
0.3,506.911,303.112,7.23265,49.1942,207.928,-883.54,-178.182
0.32,505.848,303.075,8.29676,53.2051,200.545,-369.149,-177.672
0.34,504.703,303.022,9.44312,57.3182,205.656,255.562,-177.071
0.36,503.473,302.953,10.675,61.596,213.886,411.499,-176.371
0.38,502.157,302.86,11.9938,65.9379,217.097,160.528,-175.565
0.4,500.754,302.741,13.4019,70.4029,223.252,307.766,-174.645
0.42,499.293,302.59,14.8708,73.4487,152.287,-3548.25,-173.615
0.44,497.814,302.411,16.3608,74.4975,52.4413,-4992.29,-172.51
0.46,496.323,302.199,17.866,75.2607,38.1574,-714.194,-171.344
0.48,494.824,301.955,19.3853,75.9639,35.162,-149.771,-170.123
0.5,493.317,301.676,20.9182,76.6485,34.2305,-46.5758,-168.851
0.52,491.803,301.359,22.4651,77.3414,34.6449,20.7215,-167.528
0.54,490.287,301.005,24.0211,77.8021,23.0362,-580.439,-166.166
0.56,488.772,300.612,25.5869,78.2907,24.4306,69.7242,-164.77
0.58,487.261,300.181,27.1581,78.5602,13.4729,-547.885,-163.352
0.6,485.757,299.711,28.7337,78.7798,10.98,-124.646,-161.916
0.62,484.262,299.202,30.3124,78.9331,7.6654,-165.73,-160.47
0.64,482.78,298.656,31.892,78.9821,2.44691,-260.925,-159.02
0.66,481.314,298.071,33.4701,78.9018,-4.01503,-323.097,-157.573
0.68,479.865,297.452,35.0467,78.83,-3.58617,21.4432,-156.137
0.7,478.435,296.798,36.6184,78.5854,-12.2309,-432.238,-154.716
0.72,477.027,296.112,38.1847,78.3184,-13.3493,-55.9166,-153.318
0.74,475.643,295.395,39.7435,77.9399,-18.9273,-278.903,-151.944
0.76,474.282,294.649,41.2956,77.6025,-16.8672,103.008,-150.602
0.78,472.948,293.877,42.8375,77.0931,-25.4732,-430.3,-149.294
0.8,471.638,293.079,44.3712,76.6892,-20.1925,264.035,-148.021
0.82,470.355,292.259,45.8935,76.1148,-28.7211,-426.431,-146.789
0.84,469.099,291.417,47.406,75.6209,-24.6948,201.315,-145.596
0.86,467.87,290.557,48.9058,74.9932,-31.3848,-334.502,-144.45
0.88,466.667,289.679,50.3955,74.482,-25.5622,291.131,-143.344
0.9,465.489,288.785,51.8743,73.9446,-26.8702,-65.4016,-142.278
0.92,464.336,287.877,53.3417,73.3655,-28.951,-104.04,-141.259
0.94,463.21,286.957,54.795,72.6657,-34.9902,-301.96,-140.29
0.96,462.108,286.026,56.2382,72.1597,-25.3007,484.475,-139.361
0.98,461.028,285.084,57.6713,71.6576,-25.1077,9.6504,-138.47
1,459.971,284.134,59.0929,71.0766,-29.048,-197.013,-137.622
1.02,458.936,283.177,60.5019,70.4538,-31.1426,-104.732,-136.824
1.04,457.922,282.212,61.9018,69.9918,-23.1,402.129,-136.062
1.06,456.928,281.241,63.2916,69.4919,-24.991,-94.5488,-135.337
1.08,455.953,280.266,64.6704,68.9384,-27.6758,-134.239,-134.654
1.1,454.996,279.286,66.0398,68.4718,-23.3324,217.17,-134.007
1.12,454.057,278.304,67.3991,67.9625,-25.461,-106.431,-133.397
1.14,453.135,277.318,68.7492,67.5062,-22.8181,132.146,-132.826
1.16,452.229,276.33,70.0892,66.999,-25.3568,-126.938,-132.29
1.18,451.336,275.341,71.422,66.6428,-17.8135,377.168,-131.783
1.2,450.458,274.351,72.7451,66.1527,-24.5047,-334.562,-131.313
1.22,449.596,273.36,74.0584,65.6673,-24.2695,11.7623,-130.88
1.24,448.744,272.37,75.3645,65.3067,-18.0306,311.942,-130.474
1.26,447.906,271.38,76.6617,64.857,-22.4852,-222.726,-130.102
1.28,447.078,270.391,77.9512,64.4743,-19.1316,167.68,-129.762
1.3,446.261,269.404,79.233,64.0894,-19.246,-5.72102,-129.448
1.32,445.455,268.419,80.5057,63.6393,-22.5079,-163.098,-129.171
1.34,444.658,267.437,81.7702,63.2235,-20.7904,85.8786,-128.925
1.36,443.871,266.457,83.0274,62.8611,-18.1204,133.498,-128.706
1.38,443.091,265.48,84.277,62.4785,-19.127,-50.3323,-128.518
1.4,442.319,264.508,85.5179,62.0445,-21.7032,-128.807,-128.362
1.42,441.556,263.541,86.7504,61.624,-21.0218,34.0686,-128.237
1.44,440.799,262.579,87.9746,61.2135,-20.5272,24.73,-128.144
1.46,440.049,261.623,89.1897,60.7506,-23.1411,-130.695,-128.087
1.48,439.305,260.672,90.3972,60.3749,-18.7872,217.695,-128.057
1.5,438.566,259.727,91.5966,59.9737,-20.0578,-63.5273,-128.06
1.52,437.833,258.793,92.7835,59.3453,-31.4204,-568.13,-128.108
1.54,437.105,257.866,93.9624,58.9442,-20.0555,568.245,-128.189
1.56,436.388,256.955,95.1217,57.9647,-48.9765,-1446.05,-128.303
1.58,435.703,256.089,96.2259,55.2097,-137.748,-4438.59,-128.455
1.6,435.056,255.278,97.2633,51.8674,-167.116,-1468.37,-128.635
1.62,434.448,254.521,98.2347,48.5731,-164.718,119.902,-128.837
1.64,433.879,253.816,99.1402,45.2744,-164.933,-10.7775,-129.056
1.66,433.35,253.166,99.9784,41.9109,-168.175,-162.105,-129.297
1.68,432.858,252.567,100.753,38.7494,-158.075,505.032,-129.55
1.7,432.401,252.016,101.469,35.7763,-148.654,471.026,-129.809
1.72,431.975,251.507,102.133,33.2149,-128.069,1029.29,-130.07
1.74,431.597,251.059,102.719,29.2987,-195.813,-3387.24,-130.328
1.76,431.251,250.654,103.252,26.626,-133.631,3109.13,-130.578
1.78,430.932,250.283,103.742,24.4972,-106.44,1359.54,-130.822
1.8,430.638,249.943,104.191,22.4431,-102.709,186.559,-131.068
1.82,430.352,249.616,104.625,21.7476,-34.7726,3396.81,-131.315
1.84,430.067,249.294,105.055,21.475,-13.6306,1057.1,-131.585
1.86,429.783,248.975,105.482,21.3619,-5.65586,398.739,-131.863
1.88,429.501,248.662,105.904,21.07,-14.5937,-446.89,-132.163
1.9,429.219,248.352,106.323,20.9679,-5.10668,474.349,-132.47
1.92,428.939,248.048,106.736,20.6506,-15.8631,-537.821,-132.801
1.94,428.659,247.747,107.147,20.5613,-4.46801,569.754,-133.141
1.96,428.382,247.453,107.551,20.2032,-17.9013,-671.662,-133.508
1.98,428.105,247.162,107.953,20.0947,-5.4257,623.778,-133.883
2,427.831,246.879,108.347,19.6847,-20.4995,-753.692,-134.289
2.02,427.557,246.6,108.738,19.5651,-5.98027,725.964,-134.704
2.04,427.287,246.329,109.121,19.1189,-22.313,-816.637,-135.153
2.06,427.016,246.062,109.5,18.9886,-6.5149,789.905,-135.612
2.08,426.75,245.804,109.871,18.5415,-22.3547,-791.992,-136.108
2.1,426.485,245.551,110.238,18.3407,-10.0399,615.742,-136.617
2.12,426.226,245.307,110.593,17.7735,-28.3565,-915.83,-137.167
2.14,425.966,245.069,110.946,17.6506,-6.14614,1110.52,-137.73
2.16,425.713,244.842,111.286,16.975,-33.7825,-1381.82,-138.34
2.18,425.46,244.618,111.624,16.8787,-4.8135,1448.45,-138.964
2.2,425.217,244.409,111.945,16.0569,-41.0927,-1813.96,-139.644
2.22,424.974,244.204,112.263,15.9081,-7.4383,1682.72,-140.34
2.24,424.744,244.015,112.56,14.8421,-53.3005,-2293.11,-141.117
2.26,424.517,243.835,112.849,14.482,-18.0026,1764.9,-141.919
2.28,424.292,243.66,113.135,14.2758,-10.3102,384.618,-142.74
2.3,424.066,243.49,113.418,14.1478,-6.39985,195.519,-143.566
2.32,423.86,243.34,113.672,12.7219,-71.2973,-3244.87,-144.508
2.34,423.661,243.2,113.916,12.1807,-27.0602,2211.86,-145.486
2.36,423.468,243.069,114.148,11.6251,-27.7767,-35.8289,-146.507
2.38,423.277,242.944,114.377,11.4566,-8.42578,967.549,-147.542
2.4,423.108,242.837,114.577,9.99928,-72.8671,-3222.07,-148.688
2.42,422.943,242.739,114.769,9.589,-20.5138,2617.67,-149.867
2.44,422.797,242.655,114.937,8.39682,-59.6089,-1954.75,-151.133
2.46,422.656,242.578,115.098,8.05045,-17.3187,2114.51,-152.427
2.48,422.531,242.514,115.239,7.02404,-51.3204,-1700.08,-153.802
2.5,422.411,242.456,115.372,6.66435,-17.9845,1666.8,-155.203
2.52,422.324,242.417,115.467,4.76738,-94.8484,-3843.19,-156.747
2.54,422.246,242.383,115.552,4.24249,-26.2446,3430.19,-158.334
2.56,422.183,242.359,115.62,3.40405,-41.9224,-783.891,-159.983
2.58,422.123,242.336,115.684,3.1716,-11.6225,1514.99,-161.652
2.6,422.096,242.328,115.712,1.44048,-86.5559,-3746.67,-163.452
2.62,422.079,242.323,115.73,0.868876,-28.5801,2898.79,-165.294
2.64,422.081,242.322,115.732,0.0927231,-38.8077,-511.378,-167.212
2.66,422.089,242.323,115.74,0.434349,17.0813,2794.45,-169.154
2.68,422.112,242.326,115.763,1.15366,35.9655,944.207,-171.15
2.7,422.138,242.33,115.79,1.31688,8.16101,-1390.22,-173.163
2.72,422.183,242.334,115.834,2.21915,45.1134,1847.62,-175.241
2.74,422.232,242.338,115.884,2.47313,12.6991,-1620.72,-177.34
2.76,422.28,242.338,115.932,2.42429,-2.44208,-757.058,-179.436
2.78,422.329,242.339,115.981,2.44722,1.14658,179.433,178.467
2.8,422.378,242.336,116.03,2.44786,0.0318786,-55.7352,176.372
2.82,422.427,242.332,116.079,2.42467,-1.15937,-59.5623,174.278
2.84,422.455,242.329,116.107,1.42907,-49.78,-2431.03,172.257
2.86,422.478,242.326,116.13,1.14875,-14.0159,1788.2,170.26
2.88,422.485,242.325,116.138,0.388513,-38.0118,-1199.8,168.321
2.9,422.488,242.325,116.14,0.122583,-13.2965,1235.77,166.401
2.92,422.472,242.33,116.156,0.804833,34.1125,2370.45,164.552
2.94,422.452,242.336,116.178,1.06495,13.0059,-1055.33,162.726
2.96,422.396,242.356,116.237,2.95875,94.6899,4084.2,161.041
2.98,422.331,242.381,116.307,3.51035,27.5802,-3355.48,159.4
3,422.25,242.413,116.394,4.3246,40.7124,656.608,157.818
3.02,422.167,242.449,116.485,4.55513,11.5264,-1459.3,156.256
3.04,422.052,242.502,116.611,6.30859,87.6733,3807.34,154.832
3.06,421.927,242.563,116.75,6.94631,31.886,-2789.36,153.451
3.08,421.785,242.637,116.91,8.00157,52.7629,1043.85,152.154
3.1,421.639,242.718,117.077,8.3662,18.2314,-1726.58,150.882
3.12,421.475,242.813,117.267,9.48167,55.7734,1877.1,149.697
3.14,421.306,242.914,117.463,9.83349,17.5912,-1909.11,148.538
3.16,421.115,243.034,117.689,11.2693,71.7894,2709.91,147.487
3.18,420.921,243.162,117.922,11.6373,18.3998,-2669.48,146.469
3.2,420.718,243.3,118.167,12.2946,32.8678,723.398,145.497
3.22,420.513,243.444,118.417,12.4965,10.0925,-1138.76,144.54
3.24,420.289,243.607,118.695,13.8661,68.4816,2919.46,143.693
3.26,420.058,243.78,118.983,14.398,26.5933,-2094.42,142.88
3.28,419.826,243.959,119.276,14.6642,13.3091,-664.212,142.091
3.3,419.595,244.142,119.571,14.765,5.04242,-413.334,141.31
3.32,419.35,244.341,119.886,15.747,49.0988,2202.82,140.604
3.34,419.103,244.546,120.208,16.0908,17.1923,-1595.33,139.921
3.36,418.847,244.764,120.544,16.7745,34.1836,849.569,139.295
3.38,418.591,244.988,120.884,17.027,12.6238,-1077.99,138.687
3.4,418.326,245.223,121.238,17.7079,34.0449,1071.05,138.127
3.42,418.061,245.462,121.595,17.8462,6.9165,-1356.42,137.581
3.44,417.791,245.712,121.963,18.3963,27.5027,1029.31,137.078
3.46,417.519,245.967,122.335,18.6085,10.6105,-844.61,136.589
3.48,417.244,246.231,122.717,19.0983,24.4921,694.077,136.138
3.5,416.966,246.499,123.103,19.2887,9.51905,-748.65,135.699
3.52,416.686,246.775,123.497,19.6865,19.8914,518.618,135.296
3.54,416.404,247.056,123.894,19.865,8.9234,-548.401,134.904
3.56,416.118,247.345,124.301,20.3327,23.3849,723.076,134.545
3.58,415.833,247.637,124.709,20.3941,3.06948,-1015.77,134.196
3.6,415.543,247.937,125.126,20.8595,23.27,1010.03,133.877
3.62,415.255,248.239,125.544,20.9094,2.49564,-1038.72,133.567
3.64,414.961,248.549,125.971,21.3502,22.0403,977.232,133.285
3.66,414.668,248.861,126.399,21.4125,3.11604,-946.213,133.013
3.68,414.372,249.181,126.835,21.7812,18.4355,765.972,132.766
3.7,414.076,249.503,127.272,21.868,4.33791,-704.878,132.528
3.72,413.775,249.832,127.718,22.2844,20.8227,824.24,132.319
3.74,413.474,250.163,128.166,22.3849,5.02269,-790.001,132.12
3.76,413.171,250.501,128.62,22.7063,16.0683,552.279,131.945
3.78,412.866,250.841,129.076,22.811,5.2358,-541.624,131.778
3.8,412.559,251.186,129.538,23.0827,13.5849,417.454,131.634
3.82,412.251,251.534,130.003,23.2491,8.32075,-263.206,131.497
3.84,411.939,251.887,130.473,23.5301,14.0521,286.569,131.384
3.86,411.628,252.241,130.945,23.5756,2.27401,-588.906,131.277
3.88,411.313,252.6,131.423,23.8944,15.9382,683.208,131.194
3.9,410.998,252.962,131.903,24.0106,5.80951,-506.433,131.117
3.92,410.681,253.324,132.383,24.0367,1.30899,-225.026,131.042
3.94,410.366,253.687,132.864,24.017,-0.98787,-114.843,130.968
3.96,410.076,254.022,133.308,22.1894,-91.3796,-4519.59,130.754
3.98,409.794,254.351,133.741,21.6697,-25.9869,3269.63,130.497
4,409.507,254.69,134.185,22.1863,25.8336,2591.03,130.284
4.02,409.218,255.032,134.633,22.3947,10.4162,-770.868,130.084
4.04,408.924,255.382,135.09,22.8528,22.9089,624.632,129.921
4.06,408.63,255.735,135.549,22.99,6.86011,-802.439,129.768
4.08,408.327,256.101,136.024,23.7427,37.6315,1538.57,129.672
4.1,408.021,256.47,136.504,23.9783,11.7809,-1292.53,129.594
4.12,407.71,256.847,136.992,24.417,21.9334,507.627,129.549
4.14,407.398,257.226,137.483,24.5348,5.89046,-802.149,129.513
4.16,407.081,257.611,137.981,24.9275,19.6349,687.224,129.507
4.18,406.763,257.997,138.482,25.0322,5.23599,-719.948,129.509
4.2,406.438,258.391,138.993,25.5303,24.9059,983.496,129.552
4.22,406.109,258.788,139.508,25.7709,12.0281,-643.89,129.608
4.24,405.775,259.191,140.031,26.1643,19.6724,382.213,129.697
4.26,405.44,259.595,140.557,26.2567,4.62094,-752.572,129.796
4.28,405.099,260.004,141.089,26.616,17.9614,667.024,129.92
4.3,404.755,260.414,141.625,26.7979,9.09732,-443.204,130.053
4.32,404.406,260.828,142.166,27.0748,13.8443,237.349,130.213
4.34,404.054,261.243,142.71,27.1736,4.94072,-445.179,130.381
4.36,403.695,261.664,143.263,27.6573,24.183,962.116,130.581
4.38,403.334,262.085,143.818,27.7383,4.05406,-1006.45,130.793
4.4,402.966,262.509,144.379,28.0603,16.0958,602.088,131.025
4.42,402.596,262.933,144.942,28.1601,4.99119,-555.231,131.265
4.44,402.222,263.358,145.509,28.3273,8.35921,168.401,131.521
4.46,401.844,263.783,146.077,28.3972,3.49653,-243.134,131.783
4.48,401.462,264.208,146.648,28.5706,8.66801,258.574,132.056
4.5,401.078,264.633,147.221,28.6528,4.10976,-227.913,132.333
4.52,400.69,265.056,147.795,28.7116,2.94281,-58.3474,132.615
4.54,400.301,265.477,148.369,28.6719,-1.98748,-246.515,132.897
4.56,399.909,265.895,148.941,28.6354,-1.82492,8.12814,133.174
4.58,399.517,266.311,149.513,28.5939,-2.07321,-12.4145,133.448
4.6,399.127,266.722,150.079,28.3069,-14.3489,-613.783,133.703
4.62,398.735,267.13,150.645,28.2959,-0.552355,689.826,133.952
4.64,398.349,267.529,151.2,27.7395,-27.8163,-1363.2,134.164
4.66,397.963,267.925,151.753,27.6424,-4.8562,1148.01,134.366
4.68,397.584,268.31,152.294,27.0483,-29.7045,-1242.42,134.52
4.7,397.207,268.692,152.831,26.8294,-10.9444,938.008,134.66
4.72,396.84,269.063,153.352,26.0829,-37.3264,-1319.1,134.743
4.74,396.476,269.43,153.869,25.8473,-11.7809,1277.27,134.808
4.76,396.123,269.785,154.37,25.0355,-40.5889,-1440.4,134.811
4.78,395.774,270.136,154.865,24.7739,-13.08,1375.45,134.794
4.8,395.437,270.476,155.344,23.9362,-41.8879,-1440.4,134.713
4.82,395.103,270.813,155.818,23.6875,-12.4354,1472.63,134.613
4.84,394.781,271.139,156.276,22.9286,-37.9409,-1275.28,134.455
4.86,394.463,271.464,156.731,22.7163,-10.6191,1366.09,134.278
4.88,394.157,271.78,157.171,22.005,-35.5606,-1247.07,134.052
4.9,393.853,272.094,157.608,21.8458,-7.96362,1379.85,133.811
4.92,393.558,272.404,158.036,21.399,-22.3403,-718.833,133.533
4.94,393.267,272.711,158.459,21.1748,-11.2084,556.595,133.243
4.96,392.981,273.016,158.877,20.8861,-14.4341,-161.283,132.928
4.98,392.699,273.321,159.293,20.7864,-4.9861,472.397,132.605
5,392.421,273.625,159.704,20.5621,-11.215,-311.443,132.267
5.02,392.146,273.93,160.115,20.5296,-1.62338,479.579,131.926
5.04,391.873,274.235,160.524,20.4718,-2.89244,-63.4532,131.58
5.06,391.603,274.542,160.933,20.454,-0.889045,100.17,131.232
5.08,391.334,274.851,161.343,20.4827,1.43538,116.221,130.888
5.1,391.066,275.162,161.753,20.5191,1.81914,19.1877,130.546
5.12,390.798,275.477,162.167,20.6872,8.40391,329.239,130.216
5.14,390.531,275.795,162.582,20.7513,3.20768,-259.811,129.89
5.16,390.263,276.116,163,20.9218,8.52542,265.887,129.579
5.18,389.997,276.44,163.419,20.9556,1.68972,-341.785,129.272
5.2,389.73,276.769,163.843,21.1662,10.528,441.916,128.98
5.22,389.463,277.1,164.269,21.291,6.2433,-214.237,128.694
5.24,389.195,277.437,164.699,21.5162,11.259,250.787,128.427
5.26,388.929,277.775,165.129,21.5276,0.570827,-534.411,128.165
5.28,388.658,278.121,165.568,21.9419,20.7152,1007.22,127.931
5.3,388.388,278.469,166.009,22.0554,5.67082,-752.218,127.705
5.32,388.116,278.823,166.456,22.3221,13.3347,383.194,127.498
5.34,387.845,279.178,166.902,22.3267,0.232583,-655.106,127.296
5.36,387.571,279.538,167.355,22.6152,14.4238,709.559,127.113
5.38,387.298,279.9,167.808,22.6601,2.24488,-608.944,126.935
5.4,387.022,280.27,168.27,23.1121,22.5988,1017.7,126.79
5.42,386.744,280.642,168.734,23.2029,4.54136,-902.871,126.655
5.44,386.465,281.017,169.201,23.3612,7.91433,168.648,126.542
5.46,386.188,281.393,169.669,23.3662,0.251722,-383.13,126.437
5.48,385.94,281.73,170.087,20.8998,-123.32,-6178.59,126.359
5.5,385.703,282.052,170.487,20.0011,-44.9328,3919.36,126.291
5.52,385.514,282.309,170.806,15.9622,-201.948,-7850.75,126.243
5.54,385.413,282.447,170.976,8.51684,-372.268,-8515.99,126.232
5.56,385.312,282.585,171.147,8.54638,1.47683,18687.2,126.221
5.58,385.212,282.722,171.318,8.52993,-0.82234,-114.958,126.211
5.6,385.111,282.86,171.488,8.51684,-0.6545,8.39201,126.2
5.62,385.011,282.997,171.658,8.47648,-2.01809,-68.1795,126.189
