"time","x","y","position","velocity","acceleration","jerk","heading"
0,504.182,280.734,0,0,0,0,-180
0.02,504.008,280.734,0.173738,8.68691,434.346,21717.3,-179.999
0.04,503.836,280.734,0.346476,8.63691,-2.5,-21842.3,-179.998
0.06,503.663,280.734,0.518953,8.62382,-0.654498,92.2751,-179.996
0.08,503.49,280.734,0.691691,8.63691,0.654498,65.4498,-179.995
0.1,503.318,280.734,0.864429,8.63691,9.96359e-10,-32.7249,-179.994
0.12,503.089,280.734,1.09264,11.4107,138.691,6934.55,-179.991
0.14,502.673,280.734,1.50855,20.7953,469.228,16526.8,-179.983
0.16,502.258,280.734,1.92446,20.7953,2.17951e-07,-23461.4,-179.975
0.18,501.738,280.734,2.44427,25.9906,259.764,12988.2,-179.959
0.2,501.197,280.733,2.98482,27.0275,51.8478,-10395.8,-179.942
0.22,500.558,280.733,3.62449,31.9835,247.798,9797.52,-179.914
0.24,499.88,280.731,4.30159,33.8551,93.5803,-7710.9,-179.88
0.26,499.153,280.73,5.02885,36.3633,125.413,1591.63,-179.839
0.28,498.379,280.727,5.80325,38.7196,117.813,-379.991,-179.787
0.3,497.597,280.724,6.58481,39.078,17.9183,-4994.74,-179.728
0.32,496.814,280.72,7.36754,39.1366,2.92939,-749.448,-179.662
0.34,496.034,280.714,8.14845,39.0456,-4.55022,-373.981,-179.589
0.36,495.254,280.709,8.92805,38.9801,-3.27251,63.8854,-179.511
0.38,494.477,280.702,9.70531,38.8627,-5.87017,-129.883,-179.424
0.4,493.701,280.693,10.4813,38.7983,-3.2225,132.383,-179.332
0.42,492.927,280.683,11.2554,38.7072,-4.55181,-66.4655,-179.233
0.44,492.154,280.673,12.028,38.6293,-3.89417,32.8819,-179.128
0.46,491.383,280.66,12.799,38.5523,-3.85201,2.10802,-179.017
0.48,490.614,280.646,13.5683,38.4624,-4.49399,-32.099,-178.899
0.5,489.847,280.63,14.336,38.3848,-3.87857,30.7709,-178.775
0.52,489.082,280.613,15.1009,38.2454,-6.97463,-154.803,-178.644
0.54,488.318,280.594,15.8655,38.2323,-0.654406,316.011,-178.508
0.56,487.555,280.574,16.6284,38.1419,-4.51739,-193.149,-178.365
0.58,486.795,280.551,17.3885,38.0045,-6.86956,-117.608,-178.215
0.6,486.036,280.527,18.1486,38.0053,0.0370547,345.331,-178.061
0.62,485.278,280.5,18.9069,37.917,-4.41283,-222.494,-177.9
0.64,484.522,280.471,19.6631,37.8071,-5.49422,-54.0694,-177.734
0.66,483.768,280.44,20.418,37.7457,-3.07242,121.09,-177.563
0.68,483.015,280.407,21.1719,37.6952,-2.5258,27.3314,-177.384
0.7,482.264,280.372,21.9236,37.5843,-5.54499,-150.96,-177.2
0.72,481.514,280.333,22.6741,37.5286,-2.78499,138,-177.011
0.74,480.767,280.293,23.4222,37.4053,-6.16094,-168.798,-176.816
0.76,480.02,280.25,24.1702,37.3982,-0.359039,290.095,-176.616
0.78,479.275,280.205,24.917,37.3386,-2.97883,-130.989,-176.411
0.8,478.532,280.157,25.6612,37.2096,-6.45167,-173.642,-176.199
0.82,477.791,280.107,26.4044,37.1638,-2.28663,208.252,-175.983
0.84,477.05,280.053,27.147,37.1255,-1.91797,18.4331,-175.763
0.86,476.311,279.997,27.888,37.0543,-3.55828,-82.0153,-175.537
0.88,475.574,279.938,28.6279,36.9938,-3.02643,26.5921,-175.309
0.9,474.838,279.876,29.3659,36.9013,-4.62168,-79.7623,-175.073
0.92,474.103,279.811,30.1038,36.8924,-0.446426,208.763,-174.835
0.94,473.369,279.744,30.841,36.8621,-1.51361,-53.3592,-174.594
0.96,472.637,279.673,31.5766,36.7787,-4.16957,-132.798,-174.349
0.98,471.905,279.598,32.3121,36.7723,-0.321352,192.411,-174.102
1,471.174,279.521,33.047,36.7485,-1.19034,-43.4496,-173.852
1.02,470.445,279.441,33.7811,36.7017,-2.33868,-57.4166,-173.601
1.04,469.716,279.358,34.515,36.6978,-0.196471,107.11,-173.348
1.06,468.987,279.272,35.2483,36.6655,-1.61587,-70.97,-173.095
1.08,468.259,279.182,35.9819,36.6764,0.545807,108.084,-172.841
1.1,467.531,279.088,36.7161,36.7145,1.9041,67.9147,-172.588
1.12,466.803,278.992,37.4501,36.6974,-0.85449,-137.93,-172.336
1.14,466.076,278.893,38.184,36.694,-0.169809,34.2341,-172.086
1.16,465.348,278.79,38.9192,36.7608,3.33916,175.448,-171.839
1.18,464.62,278.684,39.6556,36.8213,3.02744,-15.586,-171.595
1.2,463.89,278.574,40.3932,36.8797,2.91619,-5.56247,-171.357
1.22,463.159,278.462,41.1326,36.9677,4.40197,74.289,-171.124
1.24,462.428,278.346,41.8727,37.0069,1.96013,-122.092,-170.896
1.26,461.696,278.227,42.6146,37.0961,4.45833,124.91,-170.673
1.28,460.961,278.105,43.36,37.2673,8.56441,205.304,-170.465
1.3,460.224,277.98,44.1076,37.3838,5.82359,-137.041,-170.264
1.32,459.486,277.852,44.8567,37.4516,3.38784,-121.788,-170.07
1.34,458.745,277.721,45.6092,37.6259,8.71647,266.431,-169.888
1.36,458.001,277.587,46.3652,37.7994,8.67364,-2.14139,-169.721
1.38,457.254,277.45,47.1247,37.9743,8.74783,3.7098,-169.566
1.4,456.504,277.311,47.8874,38.1364,8.10545,-32.1195,-169.422
1.42,455.75,277.169,48.6542,38.3413,10.2421,106.835,-169.296
1.44,454.992,277.025,49.4257,38.5731,11.5906,67.4223,-169.187
1.46,454.232,276.879,50.1994,38.6867,5.68171,-295.444,-169.089
1.48,453.467,276.731,50.9785,38.9547,13.4002,385.923,-169.007
1.5,452.697,276.581,51.7634,39.2424,14.3847,49.2285,-168.95
1.52,451.923,276.429,52.5523,39.4484,10.2972,-204.375,-168.908
1.54,451.145,276.277,53.3447,39.6185,8.50848,-89.4385,-168.879
1.56,450.364,276.123,54.141,39.8149,9.81748,65.4501,-168.865
1.58,449.575,275.968,54.9453,40.2173,20.1177,515.012,-168.881
1.6,448.782,275.812,55.7534,40.4039,9.3347,-539.151,-168.912
1.62,447.986,275.656,56.5646,40.561,7.85398,-74.0363,-168.955
1.64,447.185,275.5,57.3804,40.787,11.3012,172.362,-169.016
1.66,446.378,275.344,58.2027,41.1146,16.3767,253.774,-169.099
1.68,445.567,275.188,59.0277,41.2524,6.88925,-474.371,-169.197
1.7,444.753,275.033,59.8568,41.4529,10.0263,156.85,-169.308
1.72,443.932,274.88,60.6914,41.7322,13.9677,197.071,-169.438
1.74,443.109,274.727,61.5288,41.8703,6.90196,-353.285,-169.583
1.76,442.282,274.576,62.3695,42.0322,8.09702,59.753,-169.738
1.78,441.451,274.427,63.2137,42.2118,8.97856,44.0771,-169.905
1.8,440.616,274.28,64.0616,42.3938,9.0989,6.01697,-170.091
1.82,439.777,274.134,64.9134,42.5928,9.95299,42.7044,-170.286
1.84,438.937,273.992,65.7652,42.5883,-0.224698,-508.884,-170.487
1.86,438.093,273.852,66.621,42.7883,9.99692,511.081,-170.697
1.88,437.246,273.715,67.4789,42.8979,5.48194,-225.749,-170.921
1.9,436.396,273.581,68.3394,43.0253,6.36925,44.3656,-171.149
1.92,435.545,273.45,69.1999,43.0237,-0.0807679,-322.501,-171.383
1.94,434.692,273.322,70.0634,43.173,7.46593,377.335,-171.622
1.96,433.837,273.199,70.9264,43.1526,-1.02111,-424.352,-171.866
1.98,432.981,273.078,71.791,43.2272,3.73176,237.644,-172.113
2,432.123,272.961,72.657,43.3016,3.71945,-0.615711,-172.364
2.02,431.265,272.847,73.5229,43.2947,-0.343814,-203.163,-172.616
2.04,430.405,272.738,74.3895,43.3317,1.84647,109.514,-172.869
2.06,429.545,272.633,75.2559,43.32,-0.582804,-121.464,-173.123
2.08,428.685,272.531,76.1217,43.289,-1.55008,-48.3639,-173.376
2.1,427.824,272.433,76.9881,43.3213,1.61587,158.298,-173.629
2.12,426.964,272.338,77.8536,43.2729,-2.42151,-201.869,-173.88
2.14,426.103,272.249,78.7191,43.2752,0.114347,126.793,-174.129
2.16,425.243,272.162,79.584,43.2468,-1.41836,-76.6355,-174.377
2.18,424.383,272.079,80.4476,43.1797,-3.35406,-96.785,-174.621
2.2,423.524,272,81.3108,43.1584,-1.06648,114.379,-174.861
2.22,422.665,271.925,82.1732,43.1188,-1.97912,-45.6323,-175.099
2.24,421.806,271.853,83.0345,43.0667,-2.60574,-31.3307,-175.334
2.26,420.949,271.785,83.8947,43.0087,-2.90212,-14.8192,-175.562
2.28,420.093,271.72,84.7532,42.9249,-4.18904,-64.346,-175.788
2.3,419.238,271.658,85.6105,42.8684,-2.82605,68.1499,-176.007
2.32,418.383,271.601,86.4667,42.8056,-3.13835,-15.615,-176.222
2.34,417.529,271.546,87.3225,42.7933,-0.615433,126.146,-176.433
2.36,416.678,271.494,88.1757,42.6586,-6.73461,-305.959,-176.638
2.38,415.826,271.446,89.0283,42.6313,-1.36438,268.511,-176.838
2.4,414.977,271.4,89.8793,42.5473,-4.20189,-141.875,-177.032
2.42,414.128,271.358,90.7287,42.474,-3.66151,27.019,-177.221
2.44,413.281,271.318,91.5765,42.3883,-4.28798,-31.3234,-177.404
2.46,412.436,271.281,92.4229,42.3183,-3.49752,39.5229,-177.582
2.48,411.591,271.247,93.2683,42.2724,-2.2962,60.066,-177.753
2.5,410.749,271.215,94.1113,42.1511,-6.0658,-188.48,-177.919
2.52,409.907,271.185,94.9535,42.1058,-2.26437,190.072,-178.078
2.54,409.068,271.159,95.7932,41.9854,-6.01961,-187.762,-178.232
2.56,408.229,271.134,96.6325,41.9684,-0.850205,258.47,-178.381
2.58,407.391,271.111,97.4703,41.887,-4.07068,-161.024,-178.524
2.6,406.557,271.091,98.3048,41.7284,-7.92742,-192.837,-178.659
2.62,405.723,271.072,99.1388,41.6987,-1.48547,322.098,-178.788
2.64,404.891,271.056,99.9714,41.6312,-3.37871,-94.6625,-178.912
2.66,404.06,271.041,100.802,41.5507,-4.02073,-32.1008,-179.03
2.68,403.231,271.028,101.631,41.4452,-5.27816,-62.8716,-179.14
2.7,402.404,271.016,102.459,41.3651,-4.00198,63.809,-179.244
2.72,401.578,271.006,103.284,41.2859,-3.9598,2.10932,-179.342
2.74,400.755,270.997,104.108,41.1568,-6.45653,-124.836,-179.434
2.76,399.933,270.99,104.93,41.1273,-1.47714,248.969,-179.52
2.78,399.112,270.983,105.751,41.0221,-5.2563,-188.958,-179.598
2.8,398.294,270.978,106.569,40.9302,-4.59867,32.881,-179.669
2.82,397.476,270.974,107.386,40.8644,-3.28655,65.606,-179.735
2.84,396.665,270.97,108.198,40.5597,-15.2359,-597.466,-179.793
2.86,395.867,270.968,108.996,39.9308,-31.4457,-810.493,-179.845
2.88,395.122,270.966,109.741,37.2237,-135.354,-5195.39,-179.885
2.9,394.441,270.965,110.422,34.0689,-157.741,-1119.37,-179.917
2.92,393.801,270.964,111.062,32.0035,-103.272,2723.43,-179.944
2.94,393.251,270.964,111.612,27.4725,-226.547,-6163.73,-179.961
2.96,392.741,270.964,112.122,25.4963,-98.809,6386.9,-179.976
2.98,392.321,270.964,112.542,21.0047,-224.581,-6288.62,-179.984
3,391.901,270.964,112.962,21.0047,2.03192e-07,11229.1,-179.992
3.02,391.706,270.964,113.157,9.77618,-561.427,-28071.3,-179.994
3.04,391.532,270.964,113.33,8.66309,-55.6545,25288.6,-179.995
3.06,391.359,270.964,113.504,8.66309,9.9325e-10,2782.72,-179.996
3.08,391.186,270.964,113.677,8.67618,0.654498,32.7249,-179.998
3.1,391.012,270.964,113.851,8.66309,-0.654498,-65.4498,-179.999
