"time","x","y","position","velocity","acceleration","jerk","heading"
0,387.119,265.587,0,0,0,0,-19.8
0.02,387.281,265.528,0.172171,8.60856,430.428,21521.4,-19.8045
0.04,387.443,265.471,0.344005,8.59167,-0.844477,-21563.6,-19.809
0.06,387.605,265.412,0.51615,8.60725,0.779027,81.1752,-19.8136
0.08,387.766,265.353,0.688321,8.60856,0.0654494,-35.6789,-19.8181
0.1,387.928,265.296,0.860155,8.59167,-0.844473,-45.4961,-19.8226
0.12,388.142,265.218,1.0869,11.3374,137.287,6906.55,-19.8301
0.14,388.53,265.078,1.50019,20.6643,466.344,16452.9,-19.8476
0.16,388.92,264.938,1.91441,20.7113,2.35157,-23199.6,-19.8651
0.18,389.403,264.763,2.4277,25.6644,247.652,12265,-19.903
0.2,389.905,264.581,2.96241,26.7355,53.5549,-9704.85,-19.9449
0.22,390.453,264.382,3.54528,29.1437,120.412,3342.86,-20.0094
0.24,391,264.183,4.12693,29.0825,-3.06166,-6173.69,-20.0776
0.26,391.545,263.983,4.70759,29.0326,-2.49527,28.3194,-20.1532
0.28,392.085,263.785,5.28296,28.7685,-13.2027,-535.37,-20.2467
0.3,392.623,263.586,5.85632,28.668,-5.02593,408.837,-20.3492
0.32,393.158,263.387,6.4267,28.5194,-7.43119,-120.263,-20.4608
0.34,393.69,263.187,6.99598,28.464,-2.76586,233.266,-20.5793
0.36,394.22,262.988,7.56165,28.2834,-9.03205,-313.31,-20.7116
0.38,394.746,262.789,8.12426,28.1306,-7.64138,69.5338,-20.8547
0.4,395.27,262.589,8.68483,28.0283,-5.11154,126.492,-21.0034
0.42,395.791,262.388,9.24318,27.9176,-5.53828,-21.3371,-21.1633
0.44,396.309,262.187,9.79874,27.7777,-6.99255,-72.7138,-21.3317
0.46,396.822,261.985,10.3506,27.5928,-9.24436,-112.59,-21.517
0.48,397.334,261.783,10.9006,27.5005,-4.61688,231.374,-21.7086
0.5,397.843,261.579,11.4496,27.4492,-2.56725,102.482,-21.9034
0.52,398.347,261.375,11.9932,27.1822,-13.3458,-538.926,-22.1179
0.54,398.849,261.17,12.5352,27.0977,-4.22754,455.911,-22.3382
0.56,399.348,260.964,13.0749,26.9865,-5.56127,-66.6865,-22.5699
0.58,399.844,260.757,13.6127,26.8896,-4.84408,35.86,-22.8084
0.6,400.338,260.548,14.149,26.8123,-3.86226,49.0906,-23.0502
0.62,400.825,260.339,14.6789,26.4968,-15.7784,-595.804,-23.3191
0.64,401.31,260.129,15.2073,26.4185,-3.91364,593.236,-23.5915
0.66,401.793,259.917,15.7346,26.3695,-2.45074,73.1451,-23.8707
0.68,402.271,259.704,16.2584,26.1881,-9.07015,-330.971,-24.1614
0.7,402.748,259.489,16.781,26.1279,-3.00862,303.077,-24.4579
0.72,403.217,259.274,17.2975,25.8268,-15.0575,-602.445,-24.7752
0.74,403.685,259.056,17.8134,25.7945,-1.61178,672.286,-25.0963
0.76,404.15,258.837,18.3277,25.7173,-3.86135,-112.478,-25.4247
0.78,404.61,258.617,18.8376,25.4911,-11.3116,-372.511,-25.7684
0.8,405.067,258.395,19.3458,25.4104,-4.0353,363.814,-26.1198
0.82,405.518,258.171,19.8489,25.1543,-12.8043,-438.448,-26.4872
0.84,405.968,257.946,20.3522,25.1688,0.726197,676.523,-26.8586
0.86,406.414,257.718,20.8527,25.0219,-7.34712,-403.666,-27.2379
0.88,406.854,257.49,21.3488,24.8091,-10.6378,-164.536,-27.6353
0.9,407.29,257.259,21.8424,24.6758,-6.66634,198.575,-28.0416
0.92,407.723,257.028,22.3326,24.5124,-8.16817,-75.0915,-28.4606
0.94,408.151,256.793,22.8213,24.4353,-3.85358,215.729,-28.8845
0.96,408.577,256.556,23.3085,24.3599,-3.77125,4.11661,-29.3182
0.98,408.997,256.318,23.7907,24.1085,-12.5727,-440.071,-29.7686
1,409.412,256.078,24.2701,23.9703,-6.90696,283.286,-30.2272
1.02,409.823,255.837,24.7473,23.8615,-5.43922,73.3868,-30.6985
1.04,410.23,255.593,25.2218,23.7221,-6.96948,-76.5129,-31.1751
1.06,410.633,255.347,25.6943,23.6247,-4.87349,104.8,-31.6625
1.08,411.032,255.099,26.1631,23.4442,-9.02241,-207.446,-32.1652
1.1,411.425,254.849,26.6293,23.3085,-6.78416,111.913,-32.6755
1.12,411.814,254.597,27.0926,23.1648,-7.18589,-20.0866,-33.1986
1.14,412.199,254.344,27.5534,23.0413,-6.1741,50.5894,-33.7267
1.16,412.58,254.086,28.0132,22.9886,-2.63955,176.728,-34.2652
1.18,412.954,253.828,28.4681,22.7461,-12.1225,-474.147,-34.8182
1.2,413.325,253.568,28.9216,22.6728,-3.66754,422.747,-35.3783
1.22,413.692,253.305,29.3723,22.5368,-6.79907,-156.576,-35.9505
1.24,414.054,253.04,29.821,22.4358,-5.04708,87.5995,-36.527
1.26,414.411,252.772,30.2678,22.3385,-4.86763,8.97236,-37.1123
1.28,414.764,252.503,30.7111,22.1628,-8.78339,-195.788,-37.7111
1.3,415.111,252.231,31.1523,22.0596,-5.16091,181.124,-38.3167
1.32,415.454,251.958,31.5908,21.9259,-6.68444,-76.1764,-38.933
1.34,415.793,251.68,32.0291,21.9142,-0.584358,305.004,-39.5527
1.36,416.127,251.402,32.4642,21.7546,-7.9818,-369.872,-40.1796
1.38,416.457,251.12,32.8981,21.696,-2.92836,252.672,-40.817
1.4,416.783,250.836,33.3301,21.6008,-4.75934,-91.5487,-41.4597
1.42,417.102,250.55,33.7585,21.4228,-8.90128,-207.097,-42.1118
1.44,417.419,250.261,34.1873,21.4401,0.86743,488.436,-42.7666
1.46,417.731,249.969,34.6145,21.357,-4.15617,-251.18,-43.4267
1.48,418.038,249.675,35.0398,21.2663,-4.53706,-19.0446,-44.093
1.5,418.341,249.378,35.4649,21.2547,-0.579877,197.859,-44.7625
1.52,418.639,249.078,35.8873,21.1182,-6.82203,-312.108,-45.4396
1.54,418.934,248.775,36.31,21.1377,0.973299,389.766,-46.1181
1.56,419.225,248.47,36.7315,21.0733,-3.22196,-209.763,-46.7994
1.58,419.511,248.161,37.1525,21.0492,-1.20459,100.868,-47.4834
1.6,419.793,247.85,37.5727,21.0118,-1.86667,-33.104,-48.1686
1.62,420.072,247.535,37.9932,21.0226,0.539375,120.302,-48.8573
1.64,420.346,247.217,38.4127,20.9771,-2.2751,-140.724,-49.5459
1.66,420.616,246.896,38.8321,20.9689,-0.410802,93.2149,-50.2348
1.68,420.882,246.573,39.2514,20.968,-0.0447557,18.3023,-50.9233
1.7,421.146,246.245,39.6716,21.0056,1.87816,96.1459,-51.6117
1.72,421.404,245.914,40.0918,21.0131,0.378102,-75.003,-52.2979
1.74,421.659,245.579,40.5126,21.0397,1.32773,47.4814,-52.9825
1.76,421.912,245.241,40.9344,21.088,2.41579,54.4029,-53.6641
1.78,422.159,244.9,41.356,21.0835,-0.225686,-132.074,-54.3425
1.8,422.404,244.555,41.7793,21.1607,3.85741,204.155,-55.0194
1.82,422.645,244.205,42.2037,21.222,3.06907,-39.4173,-55.691
1.84,422.883,243.853,42.6288,21.2533,1.56402,-75.2523,-56.3589
1.86,423.117,243.496,43.0561,21.3643,5.55124,199.361,-57.0194
1.88,423.349,243.135,43.4847,21.4301,3.2874,-113.192,-57.6741
1.9,423.576,242.771,43.9142,21.4752,2.25742,-51.4989,-58.326
1.92,423.801,242.402,44.3454,21.5632,4.39632,106.945,-58.9689
1.94,424.021,242.03,44.7781,21.6337,3.52559,-43.5366,-59.6077
1.96,424.24,241.654,45.213,21.7465,5.6435,105.895,-60.2381
1.98,424.455,241.273,45.651,21.9008,7.71228,103.439,-60.8586
2,424.666,240.889,46.0892,21.9102,0.469338,-362.147,-61.4739
2.02,424.875,240.499,46.5316,22.117,10.3419,493.629,-62.0777
2.04,425.08,240.106,46.9748,22.1602,2.15906,-409.142,-62.6776
2.06,425.282,239.71,47.4191,22.2149,2.7362,28.8571,-63.2696
2.08,425.483,239.308,47.8689,22.4894,13.7259,549.483,-63.8474
2.1,425.678,238.903,48.3183,22.4729,-0.82435,-727.511,-64.4181
2.12,425.873,238.492,48.7732,22.745,13.6026,721.345,-64.9752
2.14,426.064,238.078,49.2286,22.7663,1.06424,-626.916,-65.5279
2.16,426.251,237.661,49.686,22.8702,5.19776,206.676,-66.0717
2.18,426.435,237.238,50.1471,23.056,9.29025,204.624,-66.6025
2.2,426.618,236.813,50.6102,23.1562,5.00935,-214.045,-67.1266
2.22,426.798,236.382,51.0771,23.3432,9.34864,216.964,-67.6325
2.24,426.974,235.947,51.546,23.4469,5.18226,-208.319,-68.1338
2.26,427.148,235.509,52.0174,23.5696,6.13766,47.7698,-68.6257
2.28,427.327,235.043,52.5165,24.9537,69.2025,3153.24,-69.1305
2.3,427.51,234.555,53.0382,26.088,56.7155,-624.351,-69.6469
2.32,427.713,234.002,53.627,29.4366,167.434,5535.91,-70.2004
2.34,427.926,233.399,54.2664,31.9733,126.835,-2029.94,-70.7841
2.36,428.149,232.747,54.9558,34.4674,124.705,-106.498,-71.3931
2.38,428.383,232.041,55.6997,37.1964,136.449,587.216,-72.0194
2.4,428.626,231.277,56.5016,40.095,144.931,424.087,-72.6565
2.42,428.877,230.455,57.3604,42.9413,142.315,-130.817,-73.3102
2.44,429.135,229.574,58.2784,45.8995,147.907,279.595,-73.9677
2.46,429.4,228.633,59.2565,48.9035,150.203,114.825,-74.6202
2.48,429.669,227.633,60.292,51.7757,143.609,-329.687,-75.2763
2.5,429.943,226.565,61.3945,55.1262,167.523,1195.68,-75.9121
2.52,430.221,225.43,62.563,58.4254,164.962,-128.049,-76.5376
2.54,430.5,224.231,63.7937,61.533,155.381,-479.075,-77.1394
2.56,430.783,222.962,65.0938,65.0044,173.569,909.398,-77.7152
2.58,431.068,221.624,66.4616,68.3926,169.409,-207.962,-78.2582
2.6,431.354,220.218,67.8968,71.7579,168.268,-57.0625,-78.7632
2.62,431.635,218.767,69.3752,73.921,108.151,-3005.83,-79.2169
2.64,431.91,217.295,70.8721,74.8427,46.0879,-3103.17,-79.6118
2.66,432.178,215.808,72.3838,75.5883,37.2779,-440.501,-79.9466
2.68,432.441,214.303,73.9114,76.3799,39.5827,115.237,-80.2262
2.7,432.699,212.782,75.4534,77.0994,35.9734,-180.462,-80.4463
2.72,432.955,211.248,77.0093,77.7931,34.6864,-64.3522,-80.614
2.74,433.209,209.697,78.5805,78.5612,38.4034,185.851,-80.7243
2.76,433.464,208.132,80.1661,79.2768,35.7802,-131.16,-80.7787
2.78,433.72,206.553,81.7657,79.9831,35.3155,-23.2355,-80.7823
2.8,433.979,204.96,83.3802,80.7259,37.1375,91.1028,-80.726
2.82,434.242,203.354,85.0075,81.3612,31.764,-268.673,-80.6224
2.84,434.512,201.733,86.6503,82.1413,39.0062,362.107,-80.4573
2.86,434.789,200.1,88.3074,82.8572,35.7982,-160.401,-80.2413
2.88,435.076,198.454,89.9782,83.538,34.039,-87.9584,-79.9703
2.9,435.375,196.793,91.6654,84.3609,41.1464,355.37,-79.638
2.92,435.686,195.122,93.3648,84.9678,30.3426,-540.191,-79.2587
2.94,436.012,193.437,95.0819,85.8577,44.4944,707.591,-78.808
2.96,436.355,191.74,96.8131,86.5579,35.0087,-474.285,-78.3097
2.98,436.717,190.03,98.5611,87.3991,42.0612,352.625,-77.743
3,437.1,188.308,100.325,88.1855,39.3223,-136.945,-77.1188
3.02,437.508,186.576,102.104,88.9438,37.9115,-70.5398,-76.4334
3.04,437.94,184.831,103.901,89.886,47.1122,460.035,-75.6782
3.06,438.401,183.078,105.715,90.6791,39.6553,-372.845,-74.8647
3.08,438.893,181.313,107.547,91.5907,45.5802,296.245,-73.9777
3.1,439.417,179.541,109.395,92.4082,40.8765,-235.186,-73.0289
3.12,439.977,177.76,111.262,93.3411,46.6417,288.261,-72.0086
3.14,440.576,175.972,113.147,94.2698,46.4366,-10.2561,-70.9213
3.16,441.216,174.18,115.05,95.1212,42.5674,-193.461,-69.7631
3.18,441.899,172.385,116.97,96.0326,45.5701,150.135,-68.5404
3.2,442.629,170.589,118.909,96.9522,45.9827,20.6285,-67.2438
3.22,443.405,168.796,120.863,97.6832,36.5484,-471.712,-65.8923
3.24,444.234,167.004,122.838,98.7539,53.5381,849.486,-64.4629
3.26,445.114,165.223,124.824,99.2975,27.1758,-1318.12,-62.9858
3.28,446.047,163.45,126.828,100.188,44.5271,867.563,-61.4436
3.3,447.034,161.693,128.843,100.782,29.7222,-740.245,-59.8567
3.32,448.077,159.954,130.871,101.38,29.8713,7.45536,-58.223
3.34,449.175,158.237,132.908,101.866,24.292,-278.966,-56.5527
3.36,450.328,156.549,134.953,102.241,18.7856,-275.318,-54.8519
3.38,451.533,154.889,137.004,102.539,14.8972,-194.42,-53.1307
3.4,452.79,153.265,139.057,102.674,6.71532,-409.095,-51.3969
3.42,454.096,151.679,141.112,102.722,2.42956,-214.288,-49.6604
3.44,455.448,150.135,143.165,102.648,-3.72022,-307.489,-47.9308
3.46,456.844,148.635,145.213,102.429,-10.9432,-361.151,-46.2165
3.48,458.278,147.181,147.256,102.126,-15.1703,-211.355,-44.527
3.5,459.749,145.777,149.289,101.669,-22.8535,-384.156,-42.8712
3.52,461.251,144.421,151.313,101.183,-24.2666,-70.6589,-41.2535
3.54,462.78,143.117,153.323,100.486,-34.8695,-530.143,-39.6867
3.56,464.334,141.862,155.32,99.8629,-31.144,186.275,-38.1693
3.58,465.908,140.658,157.301,99.0725,-39.5227,-418.933,-36.7125
3.6,467.497,139.503,159.266,98.2561,-40.8163,-64.6804,-35.3177
3.62,469.102,138.395,161.216,97.475,-39.059,87.8622,-33.9836
3.64,470.713,137.334,163.145,96.4585,-50.8247,-588.284,-32.7254
3.66,472.334,136.317,165.059,95.6715,-39.3466,573.905,-31.5264
3.68,473.957,135.343,166.951,94.6351,-51.8215,-623.748,-30.408
3.7,475.583,134.41,168.827,93.7806,-42.7236,454.895,-29.3521
3.72,477.188,133.525,170.659,91.6093,-108.566,-3292.13,-28.3851
3.74,478.732,132.706,172.407,87.3847,-211.232,-5133.29,-27.5174
3.76,480.217,131.946,174.075,83.4064,-198.912,616.026,-26.7403
3.78,481.631,131.244,175.654,78.9571,-222.464,-1177.64,-26.0569
3.8,482.984,130.592,177.155,75.0692,-194.398,1403.32,-25.4473
3.82,484.274,129.986,178.581,71.2842,-189.247,257.527,-24.9142
3.84,485.495,129.425,179.925,67.1961,-204.41,-758.108,-24.4468
3.86,486.65,128.905,181.191,63.3088,-194.365,502.224,-24.0418
3.88,487.741,128.422,182.384,59.6554,-182.669,584.798,-23.6913
3.9,488.769,127.975,183.505,56.0299,-181.273,69.8175,-23.3883
3.92,489.732,127.561,184.553,52.4217,-180.412,43.0361,-23.1342
3.94,490.633,127.179,185.533,48.9766,-172.254,407.917,-22.9151
3.96,491.474,126.825,186.445,45.5857,-169.547,135.346,-22.7314
3.98,492.257,126.498,187.293,42.4417,-157.196,617.517,-22.5813
4,492.965,126.204,188.06,38.3364,-205.267,-2403.55,-22.456
4.02,493.613,125.938,188.76,35.0032,-166.662,1930.28,-22.3597
4.04,494.219,125.689,189.415,32.7628,-112.019,2732.13,-22.2806
4.06,494.737,125.477,189.975,27.9882,-238.731,-6335.57,-22.2222
4.08,495.22,125.28,190.497,26.0991,-94.4521,7213.93,-22.1712
4.1,495.615,125.119,190.924,21.3233,-238.788,-7216.82,-22.1389
4.12,496.011,124.959,191.351,21.3521,1.44009,12011.4,-22.1065
4.14,496.197,124.883,191.552,10.0632,-564.448,-28294.4,-22.0967
4.16,496.359,124.817,191.727,8.7279,-66.7649,24884.1,-22.0896
4.18,496.522,124.751,191.902,8.77424,2.31718,3454.1,-22.0825
4.2,496.684,124.686,192.077,8.72921,-2.25173,-228.445,-22.0753
4.22,496.846,124.62,192.252,8.77424,2.25173,225.173,-22.0682
