"time","x","y","position","velocity","acceleration","jerk","heading"
0,504.182,310.734,0,0,0,0,-180
0.02,504.008,310.734,0.174262,8.71309,435.654,21782.7,-179.999
0.04,503.834,310.734,0.347524,8.66309,-2.5,-21907.7,-179.998
0.06,503.661,310.734,0.521047,8.67618,0.654498,157.725,-179.996
0.08,503.488,310.734,0.694309,8.66309,-0.654498,-65.4498,-179.995
0.1,503.314,310.734,0.867571,8.66309,-9.93161e-10,32.7249,-179.994
0.12,503.085,310.734,1.09736,11.4893,141.309,7065.45,-179.991
0.14,502.665,310.734,1.51745,21.0047,475.772,16723.2,-179.983
0.16,502.244,310.734,1.93754,21.0047,-2.15775e-07,-23788.6,-179.975
0.18,501.716,310.734,2.46573,26.4094,270.236,13511.8,-179.959
0.2,501.167,310.733,3.01519,27.4726,53.1568,-10854,-179.942
0.22,500.512,310.733,3.66952,32.7165,262.197,10452,-179.914
0.24,499.818,310.731,4.36442,34.7452,101.434,-8038.15,-179.88
0.26,499.069,310.73,5.11315,37.4367,134.576,1657.08,-179.839
0.28,498.267,310.727,5.91477,40.081,132.212,-118.191,-179.787
0.3,497.455,310.724,6.72723,40.6226,27.0813,-5256.54,-179.728
0.32,496.638,310.72,7.54451,40.8644,12.0924,-749.448,-179.662
0.34,495.818,310.714,8.36365,40.9567,4.61272,-373.983,-179.589
0.36,494.998,310.707,9.18409,41.0221,3.27251,-67.0104,-179.511
0.38,494.175,310.7,10.0069,41.1404,5.91079,131.914,-179.424
0.4,493.351,310.691,10.831,41.2068,3.32249,-129.415,-179.332
0.42,492.525,310.681,11.657,41.299,4.61118,64.4343,-179.233
0.44,491.698,310.669,12.4846,41.3782,3.95979,-32.5694,-179.128
0.46,490.869,310.656,13.3137,41.4583,4.00199,2.11009,-179.017
0.48,490.038,310.64,14.1448,41.5516,4.66896,33.3486,-178.899
0.5,489.205,310.624,14.9774,41.6312,3.97543,-34.6768,-178.775
0.52,488.372,310.605,15.8109,41.6749,2.18835,-89.3538,-178.644
0.54,487.536,310.584,16.6468,41.7927,5.89057,185.111,-178.508
0.56,486.699,310.562,17.4845,41.8856,4.64548,-62.2546,-178.365
0.58,485.861,310.537,18.3231,41.9315,2.29351,-117.598,-178.215
0.6,485.02,310.509,19.1638,42.037,5.27304,148.976,-178.061
0.62,484.178,310.48,20.0065,42.132,4.75014,-26.1453,-177.9
0.64,483.336,310.447,20.8495,42.153,1.05072,-184.971,-177.734
0.66,482.492,310.412,21.694,42.2224,3.4726,121.094,-177.563
0.68,481.645,310.375,22.5416,42.3814,7.94616,223.678,-177.384
0.7,480.798,310.336,23.3896,42.4014,0.999886,-347.314,-177.2
0.72,479.95,310.293,24.2392,42.4766,3.76004,138.008,-177.011
0.74,479.101,310.247,25.0894,42.5104,1.6931,-103.347,-176.816
0.76,478.25,310.198,25.9421,42.6341,6.18593,224.641,-176.616
0.78,477.397,310.147,26.7962,42.7055,3.56605,-130.994,-176.411
0.8,476.544,310.091,27.6514,42.7597,2.71135,-42.7353,-176.199
0.82,475.689,310.033,28.5077,42.8187,2.94933,11.8992,-175.983
0.84,474.834,309.971,29.3654,42.885,3.31803,18.4349,-175.763
0.86,473.977,309.907,30.2249,42.971,4.29562,48.8793,-175.537
0.88,473.12,309.838,31.0841,42.9628,-0.40834,-235.198,-175.309
0.9,472.262,309.766,31.9457,43.0798,5.85028,312.931,-175.073
0.92,471.403,309.689,32.8082,43.1232,2.17147,-183.941,-174.835
0.94,470.543,309.61,33.6716,43.1715,2.41334,12.0934,-174.594
0.96,469.683,309.527,34.5355,43.1928,1.06654,-67.34,-174.349
0.98,468.823,309.44,35.4002,43.2388,2.29657,61.5018,-174.102
1,467.962,309.349,36.2661,43.2935,2.7367,22.0065,-173.852
1.02,467.101,309.255,37.1316,43.2729,-1.02972,-188.321,-173.601
1.04,466.24,309.156,37.998,43.3213,2.42156,172.564,-173.348
1.06,465.381,309.054,38.8638,43.289,-1.61591,-201.873,-173.095
1.08,464.521,308.948,39.7303,43.3261,1.85484,173.537,-172.841
1.1,463.661,308.838,40.5971,43.338,0.595046,-62.9895,-172.588
1.12,462.803,308.724,41.4629,43.2947,-2.16342,-137.923,-172.336
1.14,461.946,308.607,42.3277,43.239,-2.78782,-31.22,-172.086
1.16,461.09,308.486,43.1923,43.2272,-0.587801,110.001,-171.839
1.18,460.234,308.362,44.0565,43.2092,-0.899559,-15.5879,-171.595
1.2,459.382,308.234,44.9187,43.1105,-4.9378,-201.912,-171.357
1.22,458.531,308.102,45.78,43.0676,-2.14296,139.742,-171.124
1.24,457.682,307.968,46.6395,42.9759,-4.58484,-122.094,-170.896
1.26,456.834,307.831,47.4982,42.9342,-2.08665,124.909,-170.673
1.28,455.991,307.691,48.3525,42.7128,-11.0705,-449.193,-170.465
1.3,455.15,307.548,49.2054,42.646,-3.33937,386.556,-170.264
1.32,454.312,307.402,50.056,42.5305,-5.77516,-121.789,-170.07
1.34,453.477,307.255,50.9038,42.3907,-6.99145,-60.8146,-169.888
1.36,452.647,307.105,51.7472,42.1714,-10.9613,-198.493,-169.721
1.38,451.82,306.954,52.5879,42.0322,-6.96008,200.062,-169.566
1.4,450.996,306.801,53.426,41.9064,-6.2935,33.3289,-169.422
1.42,450.178,306.647,54.2588,41.64,-13.3198,-351.315,-169.296
1.44,449.364,306.493,55.0874,41.4267,-10.6624,132.873,-169.187
1.46,448.554,306.337,55.9124,41.2524,-8.71725,97.2552,-169.089
1.48,447.747,306.181,56.7344,41.1015,-7.54376,58.6746,-169.007
1.5,446.947,306.025,57.5491,40.7347,-18.3402,-539.821,-168.95
1.52,446.151,305.869,58.3601,40.5479,-9.33771,450.123,-168.908
1.54,445.359,305.713,59.1676,40.3778,-8.50848,41.4618,-168.879
1.56,444.57,305.559,59.9713,40.1814,-9.81748,-65.4501,-168.865
1.58,443.789,305.404,60.7672,39.7984,-19.1522,-466.735,-168.881
1.6,443.012,305.252,61.5591,39.5924,-10.3003,442.596,-168.912
1.62,442.238,305.1,62.3478,39.4353,-7.85398,122.314,-168.955
1.64,441.469,304.95,63.1316,39.1901,-12.2607,-220.338,-169.016
1.66,440.704,304.802,63.9104,38.9416,-12.4213,-8.02551,-169.099
1.68,439.945,304.656,64.6842,38.6867,-12.7457,-16.221,-169.197
1.7,439.187,304.513,65.4551,38.5469,-6.99072,287.748,-169.308
1.72,438.434,304.372,66.2217,38.3289,-10.9032,-195.624,-169.438
1.74,437.685,304.233,66.9832,38.0742,-12.733,-91.49,-169.583
1.76,436.938,304.096,67.7426,37.9743,-4.99294,387.003,-169.738
1.78,436.193,303.963,68.4994,37.8397,-6.72938,-86.8216,-169.905
1.8,435.454,303.832,69.2499,37.5243,-15.772,-452.133,-170.091
1.82,434.715,303.704,69.9997,37.4878,-1.82792,697.206,-170.286
1.84,433.979,303.58,70.7462,37.3262,-8.07868,-312.538,-170.487
1.86,433.243,303.458,71.492,37.2905,-1.78408,314.73,-170.697
1.88,432.512,303.339,72.2327,37.0336,-12.844,-552.994,-170.921
1.9,431.78,303.223,72.9738,37.0563,1.13326,698.861,-171.149
1.92,431.051,303.112,73.7118,36.8976,-7.93471,-453.399,-171.383
1.94,430.32,303.002,74.4501,36.916,0.921036,442.787,-171.622
1.96,429.593,302.897,75.1854,36.7647,-7.56604,-424.354,-171.866
1.98,428.865,302.794,75.9206,36.7608,-0.195296,368.537,-172.113
2,428.137,302.695,76.6552,36.7304,-1.5166,-66.0653,-172.364
2.02,427.409,302.599,77.3891,36.6974,-1.65276,-6.80767,-172.616
2.04,426.681,302.506,78.1233,36.7081,0.537426,109.509,-172.869
2.06,425.953,302.417,78.8567,36.6703,-1.89172,-121.457,-173.123
2.08,425.225,302.331,79.59,36.6655,-0.241166,82.5279,-173.376
2.1,424.496,302.247,80.324,36.6978,1.61592,92.8543,-173.629
2.12,423.766,302.168,81.058,36.7017,0.196421,-70.975,-173.88
2.14,423.035,302.091,81.7931,36.7564,2.73243,126.8,-174.129
2.16,422.303,302.018,82.5282,36.7542,-0.109458,-142.094,-174.377
2.18,421.571,301.947,83.2641,36.7918,1.88194,99.5698,-174.621
2.2,420.836,301.88,84.0016,36.8752,4.1695,114.378,-174.861
2.22,420.101,301.815,84.7393,36.888,0.638834,-176.533,-175.099
2.24,419.366,301.753,85.4776,36.9144,1.32127,34.1217,-175.334
2.26,418.627,301.695,86.2184,37.0396,6.26088,246.981,-175.562
2.28,417.889,301.638,86.9586,37.0082,-1.571,-391.594,-175.788
2.3,417.148,301.586,87.7013,37.135,6.33681,395.39,-176.007
2.32,416.407,301.535,88.4448,37.1769,2.09763,-211.959,-176.222
2.34,415.663,301.488,89.1902,37.2693,4.62055,126.146,-176.433
2.36,414.918,301.442,89.936,37.2917,1.11944,-175.056,-176.638
2.38,414.172,301.4,90.6839,37.3953,5.18055,203.056,-176.838
2.4,413.423,301.36,91.4333,37.4684,3.65203,-76.4261,-177.032
2.42,412.674,301.322,92.1838,37.526,2.88346,-38.4286,-177.221
2.44,411.923,301.288,92.9358,37.5973,3.56604,34.129,-177.404
2.46,411.17,301.255,93.6889,37.6583,3.04741,-25.9315,-177.582
2.48,410.415,301.223,94.4448,37.7956,6.8668,190.969,-177.753
2.5,409.659,301.195,95.201,37.8052,0.479151,-319.382,-177.919
2.52,408.901,301.169,95.9598,37.9432,6.89859,320.972,-178.078
2.54,408.142,301.145,96.7189,37.9537,0.525455,-318.657,-178.232
2.56,407.381,301.122,97.4802,38.0676,5.69471,258.463,-178.381
2.58,406.619,301.101,98.2431,38.1433,3.7833,-95.5704,-178.524
2.6,405.855,301.083,99.007,38.1941,2.54458,-61.9357,-178.659
2.62,405.089,301.066,99.7734,38.3215,6.36846,191.194,-178.788
2.64,404.321,301.05,100.541,38.3848,3.16626,-160.11,-178.912
2.66,403.552,301.037,101.31,38.4615,3.83326,33.35,-179.03
2.68,402.781,301.024,102.082,38.5654,5.1938,68.0267,-179.14
2.7,402.008,301.014,102.855,38.6424,3.852,-67.0899,-179.244
2.72,401.234,301.004,103.629,38.7203,3.89418,2.10885,-179.342
2.74,400.459,300.995,104.404,38.7483,1.39747,-124.835,-179.434
2.76,399.681,300.988,105.181,38.8758,6.37683,248.968,-179.52
2.78,398.902,300.983,105.961,38.9801,5.21567,-58.0578,-179.598
2.8,398.12,300.978,106.742,39.0714,4.5643,-32.5685,-179.669
2.82,397.338,300.974,107.525,39.1366,3.25843,-65.2935,-179.735
2.84,396.557,300.97,108.306,39.0413,-4.76387,-401.115,-179.793
2.86,395.785,300.968,109.077,38.5694,-23.5918,-941.395,-179.845
2.88,395.062,300.966,109.801,36.1765,-119.646,-4802.69,-179.885
2.9,394.397,300.965,110.466,33.2312,-147.269,-1381.17,-179.917
2.92,393.771,300.964,111.091,31.2966,-96.7274,2527.08,-179.944
2.94,393.231,300.964,111.632,27.0275,-213.457,-5836.48,-179.961
2.96,392.729,300.964,112.134,25.1037,-96.191,5863.3,-179.976
2.98,392.313,300.964,112.55,20.7953,-215.419,-5961.38,-179.984
3,391.897,300.964,112.966,20.7953,-2.05238e-07,10770.9,-179.992
3.02,391.702,300.964,113.16,9.72382,-553.573,-27678.7,-179.994
3.04,391.53,300.964,113.333,8.63691,-54.3455,24961.4,-179.995
3.06,391.357,300.964,113.506,8.63691,-9.9627e-10,2717.28,-179.996
3.08,391.184,300.964,113.678,8.62382,-0.654498,-32.7249,-179.998
3.1,391.012,300.964,113.851,8.63691,0.654498,65.4498,-179.999
