"time","x","y","position","velocity","acceleration","jerk","heading"
0,504.182,310.734,0,0,0,0,-180
0.02,504.008,310.734,0.174,8.7,435,21750,180
0.04,503.835,310.734,0.347,8.65,-2.5,-21875,180
0.06,503.662,310.734,0.52,8.65,8.88178e-14,125,180
0.08,503.489,310.734,0.693,8.65,-1.77636e-13,-1.33227e-11,180
0.1,503.316,310.734,0.866,8.65,0,8.88178e-12,180
0.12,503.087,310.734,1.095,11.45,140,7000,180
0.14,502.669,310.734,1.51274,20.8869,471.846,16592.3,179.999
0.16,502.251,310.734,1.93074,20.9,0.654498,-23559.6,179.999
0.18,501.728,310.734,2.45448,26.1869,264.346,13184.6,179.998
0.2,501.183,310.735,2.99948,27.25,53.1568,-10559.4,179.998
0.22,500.536,310.735,3.64595,32.3238,253.689,10026.6,179.996
0.24,499.85,310.735,4.33169,34.2869,98.1545,-7776.71,179.995
0.26,499.113,310.735,5.06917,36.8738,129.346,1559.55,179.993
0.28,498.325,310.735,5.85664,39.3738,125,-217.275,179.991
0.3,497.529,310.735,6.65286,39.8107,21.8455,-5157.72,179.988
0.32,496.73,310.735,7.45207,39.9607,7.5,-717.275,179.985
0.34,495.931,310.735,8.25129,39.9607,2.68848e-08,-375,179.982
0.36,495.132,310.736,9.05024,39.9477,-0.652935,-32.6468,179.978
0.38,494.333,310.736,9.84919,39.9476,-0.00156333,32.5686,179.974
0.4,493.534,310.736,10.6479,39.9346,-0.654498,-32.6467,179.969
0.42,492.735,310.737,11.4466,39.9346,0.00156282,32.8031,179.964
0.44,491.937,310.737,12.2453,39.9346,-0.00156248,-0.156265,179.959
0.46,491.138,310.738,13.0437,39.9215,-0.652936,-32.5687,179.953
0.48,490.34,310.739,13.8421,39.9215,-1.7716e-07,32.6468,179.947
0.5,489.542,310.739,14.64,39.8953,-1.31056,-65.5278,179.939
0.52,488.744,310.74,15.4382,39.9084,0.656058,98.3308,179.932
0.54,487.946,310.741,16.2361,39.8953,-0.654499,-65.5278,179.924
0.56,487.148,310.742,17.0338,39.8822,-0.654498,5.34001e-06,179.915
0.58,486.351,310.744,17.8314,39.8823,0.00469002,32.9594,179.906
0.6,485.553,310.745,18.629,39.8822,-0.00468944,-0.468973,179.897
0.62,484.756,310.747,19.4264,39.8692,-0.64981,-32.256,179.887
0.64,483.958,310.748,20.2235,39.856,-0.659185,-0.46872,179.876
0.66,483.161,310.75,21.0207,39.8561,0.00468528,33.1935,179.865
0.68,482.364,310.752,21.8178,39.8561,-1.99653e-07,-0.234274,179.854
0.7,481.567,310.754,22.6147,39.843,-0.654498,-32.7249,179.842
0.72,480.77,310.756,23.4118,39.8561,0.654499,65.4499,179.831
0.74,479.973,310.759,24.2086,39.8432,-0.646685,-65.0592,179.819
0.76,479.176,310.761,25.0058,39.8561,0.646686,64.6685,179.808
0.78,478.379,310.764,25.8029,39.8563,0.00781073,-31.9438,179.797
0.8,477.582,310.767,26.6,39.8563,-2.86909e-07,-0.390551,179.786
0.82,476.785,310.77,27.3974,39.8694,0.654498,32.7249,179.776
0.84,475.987,310.773,28.1951,39.8825,0.654499,8.91534e-06,179.767
0.86,475.189,310.777,28.9927,39.8827,0.0109394,-32.178,179.758
0.88,474.391,310.78,29.7909,39.9087,1.29806,64.3559,179.751
0.9,473.593,310.784,30.5893,39.922,0.665436,-31.6311,179.745
0.92,472.794,310.787,31.388,39.9348,0.643561,-1.09373,179.74
0.94,471.995,310.791,32.187,39.9481,0.665435,1.0937,179.736
0.96,471.196,310.795,32.9865,39.9743,1.309,32.1781,179.734
0.98,470.396,310.798,33.7862,39.9872,0.643561,-33.2718,179.733
1,469.596,310.802,34.5862,40.0005,0.665436,1.09372,179.733
1.02,468.796,310.806,35.3865,40.0136,0.654498,-0.546858,179.734
1.04,467.995,310.809,36.1873,40.0396,1.29806,32.178,179.737
1.06,467.194,310.813,36.9881,40.0398,0.0109379,-64.356,179.74
1.08,466.393,310.817,37.7891,40.0529,0.654498,32.178,179.744
1.1,465.591,310.82,38.5907,40.0788,1.29806,32.178,179.75
1.12,464.79,310.824,39.3923,40.079,0.0109373,-64.3561,179.756
1.14,463.988,310.827,40.1939,40.0788,-0.0109369,-1.09371,179.762
1.16,463.186,310.83,40.9957,40.0919,0.654499,33.2718,179.769
1.18,462.384,310.834,41.7978,40.1052,0.665433,0.546735,179.777
1.2,461.582,310.837,42.5999,40.105,-0.0109346,-33.8184,179.785
1.22,460.78,310.84,43.4023,40.1181,0.654498,33.2717,179.794
1.24,459.978,310.842,44.2046,40.1179,-0.00781548,-33.1157,179.803
1.26,459.175,310.845,45.007,40.1181,0.00781505,0.781526,179.812
1.28,458.373,310.848,45.8096,40.1312,0.654498,32.3341,179.822
1.3,457.57,310.85,46.6122,40.131,-0.00781233,-33.1155,179.832
1.32,456.767,310.852,47.4151,40.1441,0.654499,33.1156,179.843
1.34,455.964,310.854,48.2177,40.131,-0.654498,-65.4499,179.853
1.36,455.162,310.856,49.0206,40.1441,0.654499,65.4498,179.864
1.38,454.359,310.858,49.8235,40.1441,-1.74127e-07,-32.7249,179.875
1.4,453.556,310.86,50.6266,40.1572,0.654498,32.7249,179.887
1.42,452.752,310.861,51.4298,40.1571,-0.00468828,-32.9593,179.899
1.44,451.949,310.863,52.2329,40.1572,0.00468621,0.468725,179.911
1.46,451.146,310.864,53.0363,40.1702,0.649814,32.2564,179.924
1.48,450.342,310.865,53.8397,40.1702,1.4689e-07,-32.4907,179.937
1.5,449.539,310.866,54.6431,40.1702,-2.89092e-07,-2.17991e-05,179.95
1.52,448.735,310.866,55.4468,40.1833,0.652934,32.6467,179.964
1.54,447.932,310.867,56.2505,40.1833,0.00156254,-32.5686,179.978
1.56,447.128,310.867,57.0544,40.1963,0.652938,32.5688,179.993
1.58,446.324,310.867,57.8578,40.1702,-1.309,-98.0967,-179.994
1.6,445.523,310.867,58.6596,40.0916,-3.92699,-130.9,-179.987
1.62,444.722,310.866,59.4602,40.0262,-3.27093,32.803,-179.985
1.64,443.923,310.866,60.2594,39.9607,-3.27405,-0.156184,-179.988
1.66,443.125,310.866,61.0575,39.9084,-2.61799,32.803,-179.995
1.68,442.328,310.866,61.8547,39.856,-2.61799,-2.02569e-06,179.994
1.7,441.531,310.866,62.6513,39.8298,-1.309,65.4499,179.981
1.72,440.735,310.867,63.4473,39.8037,-1.30743,0.0782577,179.966
1.74,439.939,310.867,64.2434,39.8037,-0.00156297,65.2934,179.951
1.76,439.143,310.868,65.0392,39.7906,-0.652938,-32.5688,179.935
1.78,438.347,310.869,65.8353,39.8037,0.654498,65.3718,179.92
1.8,437.55,310.87,66.6322,39.843,1.9635,65.4499,179.908
1.82,436.752,310.872,67.4298,39.8823,1.96818,0.234448,179.899
1.84,435.953,310.873,68.229,39.9608,3.9223,97.7059,179.896
1.86,435.152,310.875,69.0298,40.0394,3.93168,0.468794,179.899
1.88,434.351,310.876,69.8314,40.0786,1.95881,-98.6435,179.905
1.9,433.546,310.877,70.6366,40.2618,9.16298,360.209,179.925
1.92,432.738,310.878,71.4442,40.3796,5.89049,-163.625,179.954
1.94,431.928,310.879,72.2544,40.5105,6.54498,32.7245,179.993
1.96,431.113,310.879,73.0688,40.7199,10.4704,196.272,-179.952
1.98,430.295,310.878,73.8877,40.9425,11.128,32.8809,-179.88
2,429.471,310.875,74.7115,41.1915,12.4479,65.9956,-179.789
2.02,428.641,310.872,75.5413,41.4925,15.0534,130.275,-179.675
2.04,427.806,310.867,76.3767,41.7679,13.7695,-64.1987,-179.54
2.06,426.966,310.858,77.2163,41.9786,10.5329,-161.829,-179.389
2.08,426.112,310.848,78.07,42.686,35.3694,1241.82,-179.184
2.1,425.253,310.835,78.929,42.9505,13.2275,-1107.09,-178.959
2.12,424.386,310.817,79.7967,43.3852,21.7343,425.339,-178.701
2.14,423.51,310.795,80.6732,43.8241,21.9421,10.3902,-178.406
2.16,422.623,310.769,81.5607,44.3769,27.6449,285.14,-178.073
2.18,421.728,310.736,82.4556,44.741,18.2049,-472.003,-177.709
2.2,420.819,310.696,83.3657,45.5099,38.4406,1011.79,-177.291
2.22,419.902,310.649,84.2844,45.9323,21.1223,-865.918,-176.838
2.24,418.978,310.595,85.2097,46.2654,16.6549,-223.37,-176.357
2.26,418.047,310.532,86.1425,46.6409,18.7765,106.084,-175.849
2.28,417.104,310.458,87.0885,47.2982,32.8654,704.443,-175.293
2.3,416.179,310.378,88.0173,46.4416,-42.8341,-3784.97,-174.732
2.32,415.298,310.293,88.9027,44.2672,-108.716,-3294.1,-174.186
2.34,414.464,310.204,89.741,41.9181,-117.458,-437.108,-173.661
2.36,413.721,310.118,90.4891,37.4026,-225.776,-5415.87,-173.184
2.38,413.046,310.035,91.1687,33.9789,-171.181,2729.72,-172.751
2.4,412.432,309.955,91.7879,30.9626,-150.817,1018.23,-172.358
2.42,411.914,309.884,92.3106,26.1333,-241.466,-4532.46,-172.027
2.44,411.465,309.819,92.7646,22.7002,-171.654,3490.61,-171.74
2.46,411.016,309.753,93.2187,22.7074,0.359615,8600.66,-171.453
2.48,410.657,309.699,93.5813,18.1307,-228.835,-11459.7,-171.231
2.5,410.305,309.644,93.938,17.8313,-14.9722,10693.2,-171.013
2.52,409.951,309.587,94.2959,17.8963,3.25187,911.202,-170.795
2.54,409.6,309.53,94.6518,17.7946,-5.08591,-416.889,-170.581
2.56,409.251,309.471,95.006,17.7093,-4.26635,40.9783,-170.371
2.58,408.901,309.41,95.3613,17.767,2.88554,357.594,-170.161
2.6,408.551,309.349,95.7163,17.7494,-0.880443,-188.299,-169.953
2.62,408.204,309.287,96.0692,17.6434,-5.29664,-220.81,-169.75
2.64,407.857,309.223,96.4219,17.6393,-0.208371,254.413,-169.548
2.66,407.51,309.158,96.7749,17.6483,0.454185,33.1278,-169.346
2.68,407.167,309.093,97.1236,17.4351,-10.6642,-555.921,-169.161
2.7,406.826,309.028,97.4713,17.3859,-2.45634,410.395,-168.976
2.72,406.483,308.961,97.8201,17.4409,2.75039,260.336,-168.792
2.74,406.143,308.893,98.1669,17.3362,-5.23752,-399.396,-168.613
2.76,405.804,308.824,98.513,17.3068,-1.46761,188.496,-168.437
2.78,405.466,308.753,98.8586,17.281,-1.28943,8.9092,-168.26
2.8,405.128,308.683,99.2039,17.2645,-0.824776,23.2325,-168.088
2.82,404.793,308.611,99.5462,17.115,-7.47673,-332.598,-167.929
2.84,404.459,308.54,99.8878,17.0792,-1.78968,284.353,-167.769
2.86,404.125,308.467,100.23,17.0898,0.529518,115.96,-167.609
2.88,403.794,308.393,100.568,16.9435,-7.31653,-392.302,-167.461
2.9,403.464,308.32,100.907,16.9304,-0.654615,333.096,-167.314
2.92,403.135,308.244,101.245,16.8905,-1.99285,-66.9116,-167.168
2.94,402.807,308.169,101.581,16.8251,-3.27215,-63.9651,-167.027
2.96,402.479,308.093,101.918,16.8327,0.38013,182.614,-166.89
2.98,402.152,308.017,102.254,16.784,-2.43511,-140.762,-166.753
3,401.826,307.94,102.588,16.73,-2.70146,-13.3175,-166.621
3.02,401.504,307.863,102.92,16.5714,-7.92963,-261.408,-166.502
3.04,401.183,307.785,103.25,16.5097,-3.08538,242.212,-166.384
3.06,400.861,307.707,103.582,16.5831,3.67214,337.876,-166.265
3.08,400.54,307.628,103.911,16.4941,-4.45058,-406.136,-166.15
3.1,400.22,307.549,104.241,16.481,-0.654385,189.81,-166.036
3.12,399.9,307.468,104.571,16.5062,1.25884,95.6611,-165.921
3.14,399.583,307.389,104.898,16.336,-8.50846,-488.365,-165.819
3.16,399.268,307.309,105.223,16.2435,-4.62376,194.235,-165.725
3.18,398.954,307.229,105.548,16.2435,-1.19725e-05,231.188,-165.631
3.2,398.64,307.148,105.872,16.1944,-2.45513,-122.756,-165.538
3.22,398.327,307.067,106.195,16.1683,-1.30894,57.3095,-165.447
3.24,398.013,306.985,106.52,16.2423,3.70295,250.594,-165.355
3.26,397.699,306.903,106.844,16.1939,-2.41859,-306.077,-165.263
3.28,397.39,306.821,107.163,15.9842,-10.4889,-403.514,-165.188
3.3,397.081,306.74,107.483,15.9714,-0.637794,492.554,-165.113
3.32,396.772,306.656,107.803,15.9971,1.28319,96.0493,-165.038
3.34,396.464,306.574,108.122,15.9711,-1.29995,-129.157,-164.964
3.36,396.156,306.49,108.441,15.9357,-1.76785,-23.3951,-164.891
3.38,395.848,306.407,108.76,15.9709,1.75886,176.336,-164.818
3.4,395.541,306.324,109.078,15.8834,-4.37657,-306.771,-164.749
3.42,395.236,306.241,109.394,15.8269,-2.82415,77.6209,-164.688
3.44,394.932,306.157,109.71,15.7656,-3.06632,-12.1083,-164.628
3.46,394.627,306.073,110.026,15.7919,1.31757,219.194,-164.567
3.48,394.325,305.989,110.34,15.7003,-4.58146,-294.952,-164.513
3.5,394.022,305.906,110.653,15.6872,-0.654506,196.348,-164.46
3.52,393.72,305.821,110.967,15.6875,0.0162967,33.5401,-164.408
3.54,393.419,305.737,111.28,15.6482,-1.96346,-98.9879,-164.359
3.56,393.118,305.652,111.592,15.609,-1.96349,-0.00129652,-164.313
3.58,392.818,305.568,111.904,15.5959,-0.65451,65.4489,-164.268
3.6,392.518,305.484,112.216,15.5828,-0.654526,-0.000808329,-164.224
3.62,392.22,305.399,112.526,15.4828,-4.99869,-217.208,-164.185
3.64,391.921,305.314,112.836,15.5309,2.40479,370.174,-164.146
3.66,391.622,305.23,113.147,15.5309,-3.92916e-06,-120.24,-164.107
3.68,391.326,305.145,113.455,15.4043,-6.33174,-316.587,-164.074
3.7,391.029,305.06,113.764,15.4661,3.09098,471.136,-164.041
3.72,390.733,304.976,114.072,15.3912,-3.7455,-341.824,-164.009
3.74,390.437,304.89,114.379,15.3657,-1.27503,123.523,-163.98
3.76,390.142,304.806,114.687,15.3876,1.09357,118.43,-163.953
3.78,389.847,304.721,114.994,15.3395,-2.40255,-174.806,-163.926
3.8,389.553,304.636,115.3,15.3002,-1.96349,21.9527,-163.902
3.82,389.26,304.551,115.605,15.261,-1.9635,-0.000118708,-163.881
3.84,388.965,304.467,115.911,15.309,2.40253,218.301,-163.86
3.86,388.672,304.381,116.216,15.2618,-2.36089,-238.171,-163.84
3.88,388.38,304.297,116.52,15.1824,-3.96864,-80.3873,-163.825
3.9,388.089,304.212,116.824,15.1963,0.69616,233.24,-163.81
3.92,387.797,304.127,117.128,15.1963,3.10866e-06,-34.8078,-163.795
3.94,387.506,304.042,117.431,15.1571,-1.96349,-98.1748,-163.783
3.96,387.215,303.958,117.733,15.117,-2.00517,-2.08394,-163.773
3.98,386.925,303.874,118.036,15.1178,0.0416781,102.342,-163.764
4,386.676,303.801,118.295,12.9687,-107.454,-5374.81,-163.756
4.02,386.532,303.759,118.446,7.52618,-272.127,-8233.63,-163.754
4.04,386.387,303.717,118.596,7.52618,1.12728e-08,13606.3,-163.752
4.06,386.243,303.675,118.747,7.52618,9.74851e-09,-7.62146e-08,-163.75
4.08,386.098,303.633,118.897,7.52618,8.004e-09,-8.72258e-08,-163.748
4.1,385.954,303.59,119.048,7.52618,6.55942e-09,-7.22289e-08,-163.746
4.12,385.809,303.548,119.198,7.52618,4.87166e-09,-8.43881e-08,-163.744
