"time","x","y","position","velocity","acceleration","jerk","heading"
0,504.182,280.734,0,0,0,0,-180
0.02,504.008,280.734,0.173738,8.68691,434.346,21717.3,-179.999
0.04,503.836,280.734,0.346215,8.62382,-3.1545,-21875,-179.997
0.06,503.663,280.734,0.518953,8.63691,0.654498,190.45,-179.996
0.08,503.491,280.734,0.691429,8.62382,-0.654498,-65.4498,-179.994
0.1,503.318,280.734,0.864167,8.63691,0.654498,65.4498,-179.993
0.12,503.09,280.734,1.09238,11.4107,138.691,6901.83,-179.99
0.14,502.674,280.734,1.50776,20.7691,467.919,16461.4,-179.98
0.16,502.259,280.734,1.92341,20.7822,0.654499,-23363.2,-179.971
0.18,501.739,280.734,2.4427,25.9644,259.11,12922.8,-179.953
0.2,501.2,280.733,2.98246,26.9882,51.1933,-10395.8,-179.933
0.22,500.561,280.732,3.62108,31.9312,247.146,9797.62,-179.901
0.24,499.885,280.731,4.29714,33.8026,93.5729,-7678.64,-179.863
0.26,499.159,280.729,5.02283,36.2849,124.114,1527.08,-179.816
0.28,498.387,280.726,5.79539,38.628,117.154,-348.047,-179.757
0.3,497.607,280.722,6.5746,38.9604,16.6203,-5026.66,-179.689
0.32,496.827,280.718,7.35498,39.0188,2.91845,-685.094,-179.614
0.34,496.049,280.713,8.13327,38.9147,-5.20477,-406.161,-179.531
0.36,495.272,280.705,8.90975,38.8239,-4.53771,33.3529,-179.441
0.38,494.498,280.697,9.68413,38.7192,-5.23601,-34.9149,-179.343
0.4,493.726,280.687,10.4564,38.6156,-5.17975,2.81272,-179.237
0.42,492.955,280.677,11.2269,38.5246,-4.54867,31.5543,-179.124
0.44,492.187,280.664,11.9956,38.4345,-4.50651,2.10796,-179.004
0.46,491.42,280.65,12.7625,38.3446,-4.494,0.625466,-178.877
0.48,490.655,280.634,13.5276,38.255,-4.4815,0.624939,-178.743
0.5,489.893,280.616,14.2894,38.0883,-8.33516,-192.683,-178.6
0.52,489.132,280.596,15.0509,38.0765,-0.590373,387.239,-178.452
0.54,488.373,280.576,15.8104,37.9731,-5.16879,-228.921,-178.296
0.56,487.616,280.552,16.5674,37.849,-6.20559,-51.8399,-178.134
0.58,486.861,280.525,17.3233,37.7992,-2.48885,185.837,-177.964
0.6,486.108,280.498,18.0763,37.6463,-7.64534,-257.825,-177.786
0.62,485.357,280.468,18.8282,37.5973,-2.45193,259.671,-177.6
0.64,484.608,280.435,19.578,37.4881,-5.45631,-150.219,-177.409
0.66,483.86,280.4,20.3273,37.4688,-0.966714,224.48,-177.216
0.68,483.115,280.362,21.0729,37.2773,-9.57371,-430.35,-177.008
0.7,482.37,280.322,21.8186,37.2851,0.389019,498.137,-176.8
0.72,481.628,280.28,22.5618,37.1625,-6.12791,-325.847,-176.582
0.74,480.889,280.234,23.3027,37.043,-5.9772,7.53534,-176.358
0.76,480.15,280.185,24.0433,37.0296,-0.671157,265.302,-176.132
0.78,479.414,280.135,24.7806,36.8662,-8.17089,-374.986,-175.893
0.8,478.679,280.08,25.5177,36.8542,-0.596578,378.715,-175.652
0.82,477.946,280.023,26.2532,36.7739,-4.01447,-170.895,-175.404
0.84,477.215,279.963,26.9867,36.6746,-4.96455,-47.5038,-175.151
0.86,476.485,279.899,27.7195,36.6393,-1.76783,159.836,-174.894
0.88,475.757,279.832,28.4504,36.548,-4.56588,-139.902,-174.629
0.9,475.031,279.763,29.1796,36.4598,-4.40858,7.86479,-174.36
0.92,474.306,279.689,29.9083,36.432,-1.39126,150.866,-174.087
0.94,473.583,279.612,30.6359,36.382,-2.49931,-55.4025,-173.809
0.96,472.861,279.533,31.3622,36.3145,-3.3742,-43.7445,-173.528
0.98,472.141,279.449,32.0871,36.2481,-3.32201,2.60931,-173.244
1,471.421,279.362,32.8123,36.2558,0.385137,185.358,-172.955
1.02,470.703,279.271,33.5357,36.1742,-4.0774,-223.127,-172.665
1.04,469.986,279.177,34.2591,36.1673,-0.347719,186.484,-172.373
1.06,469.269,279.079,34.9824,36.1676,0.0159235,18.1821,-172.079
1.08,468.553,278.978,35.7054,36.1456,-1.10142,-55.8674,-171.785
1.1,467.837,278.872,36.429,36.1813,1.78857,144.5,-171.491
1.12,467.122,278.764,37.1523,36.1672,-0.707482,-124.803,-171.198
1.14,466.408,278.652,37.8758,36.1744,0.363513,53.5497,-170.907
1.16,465.694,278.535,38.5991,36.1646,-0.490839,-42.7176,-170.616
1.18,464.978,278.415,39.3247,36.2807,5.80529,314.807,-170.332
1.2,464.262,278.291,40.0517,36.3489,3.40957,-119.786,-170.05
1.22,463.546,278.163,40.7788,36.3549,0.300729,-155.442,-169.774
1.24,462.829,278.032,41.5079,36.4559,5.04813,237.37,-169.503
1.26,462.109,277.898,42.2399,36.601,7.25402,110.295,-169.241
1.28,461.39,277.759,42.9723,36.6185,0.876919,-318.855,-168.985
1.3,460.668,277.617,43.7086,36.8139,9.76703,444.506,-168.741
1.32,459.943,277.471,44.4473,36.9382,6.21502,-177.6,-168.508
1.34,459.217,277.322,45.1888,37.0728,6.73117,25.8071,-168.283
1.36,458.49,277.169,45.9322,37.1721,4.96568,-88.2744,-168.067
1.38,457.757,277.013,46.6816,37.4684,14.814,492.416,-167.875
1.4,457.021,276.854,47.4343,37.6334,8.24967,-328.216,-167.694
1.42,456.282,276.691,48.1907,37.8224,9.45166,60.0993,-167.525
1.44,455.541,276.526,48.9501,37.9689,7.32615,-106.276,-167.373
1.46,454.794,276.357,49.7164,38.3145,17.2778,497.582,-167.242
1.48,454.043,276.187,50.4859,38.4731,7.93047,-467.366,-167.126
1.5,453.288,276.014,51.2602,38.7179,12.2389,215.421,-167.027
1.52,452.529,275.837,52.0401,38.9927,13.7426,75.1849,-166.951
1.54,451.764,275.66,52.8252,39.2545,13.0899,-32.6326,-166.895
1.56,450.996,275.48,53.6139,39.436,9.07577,-200.708,-166.852
1.58,450.222,275.299,54.4089,39.7502,15.708,331.61,-166.833
1.6,449.441,275.117,55.2107,40.0905,17.017,65.45,-166.84
1.62,448.656,274.934,56.0167,40.3,10.472,-327.249,-166.863
1.64,447.867,274.749,56.8269,40.5094,10.472,-0.000226456,-166.902
1.66,447.072,274.565,57.6431,40.8086,14.9579,224.296,-166.961
1.68,446.271,274.38,58.4654,41.1151,15.3264,18.426,-167.048
1.7,445.466,274.195,59.2918,41.3228,10.3837,-247.136,-167.148
1.72,444.655,274.011,60.1228,41.5492,11.323,46.9668,-167.267
1.74,443.84,273.827,60.9583,41.7738,11.2292,-4.69335,-167.404
1.76,443.02,273.645,61.7985,42.0124,11.9298,35.0333,-167.558
1.78,442.195,273.464,62.6432,42.2337,11.0653,-43.2255,-167.726
1.8,441.365,273.285,63.4923,42.453,10.9656,-4.98435,-167.914
1.82,440.531,273.108,64.3445,42.6127,7.98482,-149.041,-168.115
1.84,439.694,272.933,65.1998,42.7644,7.58251,-20.1158,-168.327
1.86,438.853,272.761,66.058,42.9109,7.32625,-12.8127,-168.548
1.88,438.006,272.591,66.9217,43.182,13.5538,311.376,-168.789
1.9,437.158,272.425,67.7865,43.2445,3.12414,-521.482,-169.037
1.92,436.307,272.262,68.6528,43.3112,3.33498,10.5422,-169.293
1.94,435.452,272.103,69.5222,43.4732,8.10221,238.361,-169.556
1.96,434.595,271.947,70.3936,43.5679,4.73303,-168.459,-169.829
1.98,433.736,271.794,71.2662,43.6298,3.09766,-81.7682,-170.105
2,432.874,271.647,72.14,43.6916,3.08731,-0.517626,-170.389
2.02,432.012,271.502,73.0149,43.742,2.52192,-28.2698,-170.675
2.04,431.147,271.362,73.8911,43.8112,3.46004,46.9062,-170.965
2.06,430.281,271.227,74.7668,43.7851,-1.30669,-238.336,-171.256
2.08,429.414,271.096,75.6438,43.851,3.29512,230.09,-171.55
2.1,428.546,270.97,76.5211,43.8637,0.637336,-132.889,-171.844
2.12,427.678,270.847,77.3979,43.8424,-1.06394,-85.0636,-172.138
2.14,426.809,270.73,78.2751,43.8578,0.765611,91.4774,-172.432
2.16,425.94,270.617,79.1509,43.7922,-3.2761,-202.086,-172.723
2.18,425.07,270.507,80.0274,43.8228,1.52814,240.212,-173.014
2.2,424.202,270.403,80.9019,43.7269,-4.79593,-316.204,-173.3
2.22,423.333,270.304,81.7767,43.7402,0.665927,273.093,-173.585
2.24,422.465,270.208,82.6501,43.6711,-3.45705,-206.149,-173.866
2.26,421.597,270.117,83.5227,43.6286,-2.12261,66.7221,-174.142
2.28,420.73,270.03,84.3942,43.5741,-2.72736,-30.2375,-174.415
2.3,419.884,269.95,85.244,42.492,-54.1006,-2568.66,-174.676
2.32,419.08,269.876,86.051,40.3498,-107.11,-2650.5,-174.92
2.34,418.323,269.811,86.811,38.0001,-117.486,-518.762,-175.147
2.36,417.651,269.754,87.4858,33.7374,-213.137,-4782.55,-175.344
2.38,417.039,269.706,88.0989,30.6564,-154.05,2954.32,-175.521
2.4,416.483,269.664,88.6568,27.8919,-138.222,791.41,-175.679
2.42,416.015,269.628,89.1266,23.4905,-220.071,-4092.47,-175.811
2.44,415.607,269.599,89.5354,20.4404,-152.505,3378.31,-175.925
2.46,415.199,269.57,89.9439,20.4273,-0.654523,7592.54,-176.038
2.48,414.872,269.548,90.2716,16.3848,-202.127,-10073.6,-176.126
2.5,414.551,269.527,90.5938,16.1091,-13.7814,9417.29,-176.212
2.52,414.23,269.505,90.916,16.1091,-5.3205e-05,689.067,-176.298
2.54,413.907,269.485,91.2388,16.1427,1.67783,83.8943,-176.383
2.56,413.586,269.464,91.5607,16.0928,-2.495,-208.642,-176.468
2.58,413.264,269.445,91.8832,16.1265,1.68662,209.081,-176.552
2.6,412.943,269.426,92.2045,16.0635,-3.14998,-241.83,-176.635
2.62,412.623,269.408,92.5259,16.0713,0.386378,176.818,-176.715
2.64,412.303,269.389,92.8463,16.0213,-2.49593,-144.116,-176.795
2.66,411.982,269.371,93.1678,16.0713,2.49594,249.594,-176.875
2.68,411.662,269.354,93.4876,15.9924,-3.94269,-321.931,-176.953
2.7,411.342,269.337,93.8087,16.0554,3.15093,354.681,-177.032
2.72,411.022,269.321,94.1285,15.9898,-3.28037,-321.565,-177.11
2.74,410.703,269.305,94.4485,16.0005,0.533398,190.689,-177.185
2.76,410.383,269.29,94.7682,15.985,-0.775268,-65.4333,-177.259
2.78,410.065,269.275,95.0869,15.935,-2.4972,-86.0965,-177.333
2.8,409.746,269.26,95.4064,15.9719,1.84277,216.998,-177.406
2.82,409.427,269.247,95.7255,15.9566,-0.766913,-130.484,-177.478
2.84,409.109,269.233,96.0436,15.9066,-2.49761,-86.5348,-177.55
2.86,408.79,269.219,96.3628,15.9566,2.49762,249.761,-177.622
2.88,408.472,269.206,96.6811,15.9152,-2.06756,-228.259,-177.691
2.9,408.154,269.193,96.9994,15.9152,1.64653e-05,103.379,-177.76
2.92,407.837,269.181,97.3164,15.8522,-3.15255,-157.628,-177.828
2.94,407.52,269.169,97.6342,15.8871,1.74778,245.016,-177.895
2.96,407.203,269.158,97.9514,15.8609,-1.30899,-152.839,-177.96
2.98,406.886,269.147,98.2686,15.8592,-0.087501,61.0745,-178.025
3,406.569,269.136,98.5855,15.8461,-0.654446,-28.3472,-178.089
3.02,406.253,269.126,98.9016,15.8068,-1.96349,-65.4523,-178.15
3.04,405.938,269.115,99.217,15.7699,-1.84416,5.96669,-178.212
3.06,405.622,269.106,99.5334,15.8183,2.41953,213.184,-178.274
3.08,405.307,269.096,99.8487,15.766,-2.61799,-251.876,-178.332
3.1,404.991,269.088,100.164,15.7776,0.583627,160.081,-178.391
3.12,404.676,269.078,100.48,15.766,-0.58373,-58.3679,-178.449
3.14,404.361,269.07,100.795,15.7515,-0.725198,-7.0734,-178.506
3.16,404.047,269.063,101.109,15.724,-1.37157,-32.3184,-178.561
3.18,403.732,269.054,101.424,15.7253,0.0624982,71.7032,-178.616
3.2,403.419,269.047,101.737,15.661,-3.21623,-163.936,-178.67
3.22,403.106,269.04,102.051,15.6848,1.19032,220.327,-178.722
3.24,402.792,269.033,102.364,15.6837,-0.0542046,-62.2261,-178.774
3.26,402.479,269.027,102.678,15.6706,-0.654457,-30.0126,-178.825
3.28,402.166,269.021,102.99,15.6444,-1.30898,-32.7263,-178.874
3.3,401.853,269.015,103.303,15.6313,-0.654507,32.7238,-178.922
3.32,401.54,269.008,103.616,15.6444,0.654467,65.4487,-178.971
3.34,401.228,269.003,103.928,15.6042,-2.00929,-133.188,-179.017
3.36,400.917,268.998,104.24,15.5911,-0.654487,67.7403,-179.062
3.38,400.605,268.993,104.552,15.5911,-6.54242e-06,32.724,-179.107
3.4,400.293,268.989,104.864,15.5904,-0.0375381,-1.87658,-179.152
3.42,399.982,268.983,105.174,15.5388,-2.58051,-127.149,-179.193
3.44,399.671,268.979,105.485,15.5511,0.617065,159.879,-179.235
3.46,399.36,268.975,105.796,15.5511,3.73728e-07,-30.8532,-179.277
3.48,399.05,268.972,106.106,15.4982,-2.64722,-132.361,-179.315
3.5,398.74,268.968,106.416,15.4988,0.0291925,133.821,-179.353
3.52,398.43,268.965,106.726,15.4982,-0.0291406,-2.91665,-179.391
3.54,398.121,268.962,107.036,15.4851,-0.654488,-31.2674,-179.428
3.56,397.812,268.959,107.345,15.4458,-1.9635,-65.4503,-179.462
3.58,397.503,268.956,107.654,15.4589,0.65449,130.899,-179.497
3.6,397.194,268.954,107.963,15.4454,-0.675357,-66.4924,-179.531
3.62,396.886,268.95,108.271,15.4065,-1.94267,-63.3656,-179.562
3.64,396.578,268.948,108.579,15.4061,-0.0207946,96.0938,-179.593
3.66,396.269,268.946,108.887,15.4061,4.66987e-06,1.03996,-179.624
3.68,395.962,268.944,109.195,15.3669,-1.9635,-98.175,-179.652
3.7,395.655,268.943,109.502,15.3666,-0.0125545,97.5471,-179.68
3.72,395.348,268.941,109.809,15.3538,-0.641958,-31.4702,-179.707
3.74,395.041,268.94,110.116,15.3404,-0.667003,-1.25228,-179.733
3.76,394.735,268.938,110.422,15.3145,-1.29651,-31.4756,-179.757
3.78,394.428,268.937,110.728,15.3142,-0.0124658,64.2024,-179.781
3.8,394.122,268.936,111.034,15.3012,-0.654495,-32.1015,-179.804
3.82,393.817,268.935,111.34,15.2619,-1.96349,-65.45,-179.824
3.84,393.512,268.934,111.645,15.2619,-1.17466e-06,98.1747,-179.844
3.86,393.207,268.933,111.95,15.2619,-2.74205e-06,-7.83694e-05,-179.864
3.88,392.902,268.933,112.254,15.2094,-2.62218,-131.109,-179.88
3.9,392.598,268.932,112.559,15.2095,0.00418261,131.318,-179.896
3.92,392.294,268.932,112.863,15.2094,-0.00417134,-0.417698,-179.912
3.94,391.99,268.931,113.166,15.1833,-1.30483,-65.0331,-179.926
3.96,391.687,268.931,113.47,15.1571,-1.31315,-0.415996,-179.938
3.98,391.384,268.931,113.773,15.1571,1.7616e-06,65.6577,-179.95
4,391.081,268.93,114.076,15.1441,-0.650351,-32.5177,-179.961
4.02,390.779,268.93,114.378,15.1047,-1.96764,-65.8644,-179.969
4.04,390.477,268.93,114.68,15.1047,3.92854e-07,98.382,-179.977
4.06,390.175,268.93,114.982,15.1047,2.91453e-07,-5.07007e-06,-179.985
4.08,390.017,268.93,115.139,7.87618,-361.427,-18071.3,-179.987
4.1,389.867,268.93,115.29,7.52618,-17.5,17196.3,-179.989
4.12,389.717,268.93,115.44,7.51309,-0.654498,842.275,-179.99
4.14,389.566,268.93,115.591,7.52618,0.654498,65.4498,-179.992
4.16,389.416,268.93,115.741,7.52618,6.498e-09,-32.7249,-179.994
4.18,389.265,268.93,115.892,7.52618,4.54761e-09,-9.75198e-08,-179.996
