"time","x","y","position","velocity","acceleration","jerk","heading"
0,390.8,301,0,0,0,0,0
0.02,390.974,301,0.17436,8.71802,435.901,21795.1,-0.00519639
0.04,391.149,301,0.348721,8.71802,1.30621e-05,-21795.1,-0.0103928
0.06,391.324,301,0.524081,8.76802,2.49999,124.999,-0.0155892
0.08,391.498,301,0.698442,8.71802,-2.50007,-250.003,-0.0207855
0.1,391.673,301,0.872802,8.71802,6.53387e-05,125.007,-0.0259819
0.12,391.904,301,1.10396,11.5577,141.985,7099.24,-0.0342109
0.14,392.327,301,1.52682,21.1433,479.278,16864.7,-0.0527963
0.16,392.75,300.999,1.94969,21.1433,0.00291815,-23963.8,-0.0713816
0.18,393.285,300.999,2.48505,26.7682,281.244,14062.1,-0.114791
0.2,393.843,300.997,3.04271,27.8826,55.7192,-11276.3,-0.163105
0.22,394.509,300.995,3.70851,33.2904,270.388,10733.4,-0.238752
0.24,395.218,300.992,4.41805,35.4768,109.323,-8053.26,-0.32863
0.26,395.988,300.987,5.18818,38.5063,151.474,2107.55,-0.439819
0.28,396.84,300.979,6.04023,42.603,204.833,2667.96,-0.592719
0.3,397.758,300.969,6.95828,45.9022,164.96,-1993.63,-0.768373
0.32,398.748,300.954,7.94794,49.4832,179.05,704.477,-0.995868
0.34,399.807,300.932,9.00719,52.9624,173.959,-254.532,-1.26342
0.36,400.939,300.905,10.1399,56.6369,183.728,488.454,-1.58214
0.38,402.145,300.868,11.3466,60.3329,184.797,53.4566,-1.96081
0.4,403.425,300.82,12.6269,64.0134,184.025,-38.6366,-2.39411
0.42,404.796,300.756,13.9995,68.6301,230.838,2340.67,-2.92614
0.44,406.243,300.675,15.4486,72.4553,191.257,-1979.07,-3.52981
0.46,407.769,300.572,16.9789,76.517,203.085,591.41,-4.23008
0.48,409.387,300.441,18.6016,81.1353,230.917,1391.59,-5.03641
0.5,411.093,300.278,20.3159,85.7156,229.013,-95.1592,-5.97083
0.52,412.892,300.073,22.1266,90.5321,240.826,590.621,-7.04353
0.54,414.775,299.82,24.0263,94.9874,222.766,-903.003,-8.25726
0.56,416.71,299.517,25.985,97.9344,147.349,-3770.85,-9.62988
0.58,418.665,299.16,27.9718,99.339,70.2337,-3855.76,-11.1075
0.6,420.653,298.739,30.0043,101.626,114.341,2205.34,-12.7611
0.62,422.659,298.254,32.0684,103.205,78.9457,-1769.74,-14.5346
0.64,424.693,297.691,34.1781,105.485,114.016,1753.51,-16.4815
0.66,426.741,297.045,36.3262,107.406,96.0216,-899.718,-18.5752
0.68,428.805,296.306,38.5181,109.593,109.367,667.249,-20.8342
0.7,430.873,295.469,40.7491,111.554,98.0739,-564.636,-23.2458
0.72,432.942,294.527,43.0229,113.686,106.565,424.534,-25.82
0.74,434.995,293.473,45.3299,115.35,83.2295,-1166.76,-28.5234
0.76,437.025,292.305,47.672,117.106,87.7928,228.167,-31.3577
0.78,439.014,291.022,50.0387,118.337,61.5409,-1312.59,-34.2891
0.8,440.949,289.626,52.4249,119.308,48.5693,-648.582,-37.2913
0.82,442.816,288.126,54.8207,119.789,24.0422,-1226.36,-40.3325
0.84,444.602,286.526,57.2177,119.851,3.11135,-1046.54,-43.3755
0.86,446.293,284.841,59.6053,119.382,-23.4694,-1329.04,-46.3864
0.88,447.883,283.084,61.9751,118.49,-44.6111,-1057.08,-49.3296
0.9,449.367,281.266,64.3219,117.34,-57.4728,-643.085,-52.1804
0.92,450.741,279.404,66.6356,115.684,-82.7908,-1265.9,-54.9081
0.94,452.008,277.51,68.9145,113.943,-87.0771,-214.312,-57.5023
0.96,453.171,275.595,71.1546,112.005,-96.8743,-489.86,-59.9504
0.98,454.234,273.67,73.3539,109.965,-102.032,-257.891,-62.2393
1,455.203,271.74,75.5137,107.991,-98.6721,168.002,-64.3773
1.02,456.085,269.814,77.6312,105.875,-105.824,-357.58,-66.3534
1.04,456.888,267.893,79.7138,104.132,-87.1481,933.776,-68.1979
1.06,457.617,265.989,81.7528,101.947,-109.258,-1105.49,-69.8755
1.08,458.282,264.091,83.7636,100.539,-70.3773,1944.03,-71.4447
1.1,458.886,262.215,85.7341,98.5278,-100.57,-1509.62,-72.8606
1.12,459.436,260.351,87.6786,97.2249,-65.1479,1771.09,-74.1748
1.14,459.939,258.503,89.5929,95.7116,-75.6622,-525.713,-75.3747
1.16,460.397,256.674,91.4787,94.2905,-71.0562,230.301,-76.4664
1.18,460.817,254.858,93.3429,93.2138,-53.8335,861.131,-77.4795
1.2,461.201,253.062,95.1796,91.8336,-69.0096,-758.805,-78.3826
1.22,461.553,251.278,96.9981,90.9221,-45.5771,1171.63,-79.2158
1.24,461.878,249.507,98.7979,89.9927,-46.4705,-44.6718,-79.978
1.26,462.177,247.756,100.575,88.8534,-56.9648,-524.715,-80.6552
1.28,462.453,246.015,102.338,88.1286,-36.2374,1036.37,-81.2769
1.3,462.709,244.287,104.084,87.3103,-40.9155,-233.909,-81.8346
1.32,462.947,242.574,105.814,86.4908,-40.9759,-3.0185,-82.3335
1.34,463.169,240.871,107.531,85.8576,-31.6579,465.899,-82.7793
1.36,463.377,239.181,109.234,85.1722,-34.2746,-130.836,-83.1747
1.38,463.572,237.501,110.925,84.5393,-31.6407,131.696,-83.5225
1.4,463.757,235.833,112.604,83.9426,-29.8365,90.2103,-83.821
1.42,463.933,234.174,114.272,83.3865,-27.8044,101.606,-84.0799
1.44,464.101,232.525,115.929,82.8607,-26.2887,75.7822,-84.2976
1.46,464.261,230.889,117.573,82.2366,-31.2049,-245.807,-84.4699
1.48,464.417,229.26,119.209,81.7841,-22.6251,428.989,-84.6053
1.5,464.568,227.641,120.835,81.2936,-24.5292,-95.2019,-84.7043
1.52,464.715,226.032,122.451,80.815,-23.9262,30.1488,-84.7678
1.54,464.862,224.432,124.058,80.3346,-24.0201,-4.69537,-84.7946
1.56,465.007,222.84,125.656,79.9047,-21.496,126.206,-84.7851
1.58,465.151,221.258,127.245,79.4478,-22.8446,-67.4318,-84.7445
1.6,465.297,219.685,128.825,78.9799,-23.3987,-27.7048,-84.6671
1.62,465.444,218.121,130.396,78.552,-21.3946,100.205,-84.5563
1.64,465.594,216.566,131.958,78.1316,-21.0193,18.7676,-84.4123
1.66,465.747,215.02,133.512,77.6781,-22.6755,-82.8108,-84.2356
1.68,465.906,213.482,135.058,77.309,-18.4529,211.128,-84.0284
1.7,466.069,211.955,136.593,76.75,-27.9517,-474.939,-83.7799
1.72,466.238,210.439,138.119,76.2984,-22.5786,268.654,-83.4978
1.74,466.413,208.931,139.636,75.8659,-21.6231,47.7734,-83.183
1.76,466.597,207.435,141.145,75.4097,-22.8133,-59.5072,-82.8326
1.78,466.788,205.948,142.644,74.958,-22.5823,11.5504,-82.4472
1.8,466.989,204.473,144.132,74.4036,-27.7223,-256.999,-82.021
1.82,467.2,203.009,145.611,73.9726,-21.5478,308.724,-81.5593
1.84,467.422,201.556,147.081,73.4791,-24.677,-156.463,-81.0596
1.86,467.655,200.118,148.538,72.8652,-30.6939,-300.843,-80.516
1.88,467.9,198.691,149.985,72.3573,-25.3931,265.04,-79.9317
1.9,468.158,197.279,151.422,71.8123,-27.2532,-93.0044,-79.3057
1.92,468.431,195.881,152.846,71.2134,-29.9423,-134.454,-78.6362
1.94,468.718,194.497,154.258,70.6306,-29.1394,40.1421,-77.9191
1.96,469.02,193.131,155.658,69.9555,-33.7582,-230.939,-77.1531
1.98,469.337,191.779,157.046,69.4362,-25.9661,389.606,-76.3445
2,469.672,190.447,158.42,68.7042,-36.5959,-531.491,-75.4806
2.02,470.023,189.134,159.779,67.9328,-38.57,-98.7048,-74.5616
2.04,470.391,187.839,161.126,67.3413,-29.5767,449.665,-73.5941
2.06,470.779,186.564,162.458,66.6161,-36.2596,-334.145,-72.5703
2.08,471.185,185.311,163.775,65.8649,-37.5605,-65.0462,-71.491
2.1,471.61,184.08,165.078,65.1112,-37.6845,-6.20071,-70.3552
2.12,472.056,182.872,166.365,64.3827,-36.4283,62.8119,-69.1622
2.14,472.521,181.687,167.638,63.6362,-37.3213,-44.6507,-67.9093
2.16,473.006,180.528,168.895,62.8378,-39.9229,-130.08,-66.6011
2.18,473.514,179.393,170.138,62.1707,-33.3532,328.486,-65.2379
2.2,474.041,178.285,171.365,61.3543,-40.822,-373.439,-63.8118
2.22,474.591,177.202,172.579,60.7006,-32.6815,407.023,-62.3402
2.24,475.162,176.147,173.779,59.9982,-35.1206,-121.952,-60.8136
2.26,475.755,175.117,174.968,59.4179,-29.0187,305.093,-59.2386
2.28,476.372,174.113,176.146,58.9182,-24.9828,201.794,-57.628
2.3,477.009,173.137,177.312,58.2919,-31.3153,-316.626,-55.9713
2.32,477.673,172.185,178.472,57.9995,-14.6194,834.794,-54.2891
2.34,478.359,171.259,179.625,57.6487,-17.5393,-145.991,-52.5822
2.36,479.071,170.358,180.773,57.4278,-11.0477,324.579,-50.8582
2.38,479.808,169.48,181.92,57.3351,-4.63339,320.715,-49.1273
2.4,480.572,168.624,183.067,57.3517,0.832035,273.271,-47.3972
2.42,481.363,167.79,184.216,57.4697,5.89746,253.271,-45.6758
2.44,482.181,166.976,185.37,57.684,10.7145,240.854,-43.9729
2.46,483.029,166.182,186.532,58.1008,20.8416,506.355,-42.2986
2.48,483.905,165.408,187.701,58.4482,17.3678,-173.69,-40.6532
2.5,484.813,164.65,188.884,59.1214,33.6608,814.647,-39.0598
2.52,485.75,163.911,190.077,59.6855,28.2086,-272.611,-37.5083
2.54,486.719,163.187,191.287,60.4643,38.9357,536.356,-36.0143
2.56,487.72,162.479,192.512,61.291,41.3353,119.979,-34.5857
2.58,488.75,161.788,193.753,62.0223,36.5679,-238.37,-33.21
2.6,489.813,161.109,195.015,63.0975,53.7606,859.637,-31.9206
2.62,490.905,160.445,196.292,63.886,39.4226,-716.9,-30.6957
2.64,492.013,159.802,197.574,64.0617,8.78325,-1531.97,-29.5531
2.66,493.114,159.192,198.832,62.9348,-56.3447,-3256.4,-28.5373
2.68,494.194,158.616,200.056,61.1858,-87.45,-1555.26,-27.6152
2.7,495.254,158.072,201.248,59.5892,-79.8275,381.126,-26.7999
2.72,496.287,157.558,202.402,57.692,-94.8618,-751.717,-26.0757
2.74,497.296,157.072,203.521,55.9782,-85.6875,458.718,-25.4336
2.76,498.273,156.613,204.601,53.9718,-100.32,-731.609,-24.8765
2.78,499.215,156.182,205.636,51.7811,-109.535,-460.776,-24.3917
2.8,500.121,155.775,206.63,49.6734,-105.386,207.477,-23.9703
2.82,500.99,155.392,207.579,47.4703,-110.158,-238.595,-23.6102
2.84,501.818,155.034,208.482,45.1482,-116.102,-297.243,-23.3006
2.86,502.608,154.696,209.341,42.945,-110.163,296.96,-23.0459
2.88,503.353,154.38,210.15,40.4504,-124.727,-728.188,-22.8258
2.9,504.058,154.086,210.915,38.2192,-111.561,658.32,-22.6448
2.92,504.703,153.817,211.613,34.9155,-165.184,-2681.17,-22.5073
2.94,505.302,153.57,212.261,32.3905,-126.252,1946.6,-22.3905
2.96,505.868,153.337,212.873,30.627,-88.1763,1903.79,-22.2894
2.98,506.358,153.137,213.402,26.4475,-208.974,-6039.91,-22.2301
3,506.821,152.948,213.902,24.9887,-72.9392,6801.76,-22.1757
3.02,507.198,152.794,214.31,20.3913,-229.867,-7846.4,-22.1368
3.04,507.577,152.641,214.718,20.4188,1.37468,11562.1,-22.0979
3.06,507.768,152.563,214.925,10.3334,-504.274,-25282.4,-22.0872
3.08,507.927,152.499,215.096,8.55904,-88.716,20777.9,-22.0814
3.1,508.086,152.434,215.268,8.60407,2.25174,4548.39,-22.0755
3.12,508.245,152.37,215.439,8.55904,-2.25174,-225.174,-22.0697
3.14,508.405,152.305,215.611,8.60538,2.31719,228.447,-22.0639
