"time","x","y","position","velocity","acceleration","jerk","heading"
0,390.5,284.4,0,0,150,0,16.3
0.02,390.666,284.449,0.173205,3,150,0,16.2948
0.04,390.832,284.497,0.34641,6,150,0,16.2896
0.06,390.999,284.546,0.519615,9,150,0,16.2844
0.08,391.165,284.594,0.69282,12,150,0,16.2791
0.1,391.331,284.643,0.866025,15,150,0,16.2739
0.12,391.551,284.707,1.09471,18,150,0,16.2657
0.14,391.952,284.824,1.51286,21,150,0,16.2473
0.16,392.354,284.941,1.93102,24,150,0,16.229
0.18,392.857,285.088,2.45505,27,81.7423,0,16.1853
0.2,393.38,285.239,3,30,6.8636e-07,0,16.1367
0.22,393.957,285.406,3.6,30,0,0,16.0667
0.24,394.533,285.572,4.2,30,0,0,15.9906
0.26,395.11,285.737,4.8,30,0,0,15.9022
0.28,395.687,285.901,5.4,30,0,0,15.797
0.3,396.265,286.064,6,30,0,0,15.6835
0.32,396.843,286.225,6.6,30,0,0,15.5601
0.34,397.421,286.386,7.2,30,0,0,15.4251
0.36,397.999,286.545,7.8,30,0,0,15.267
0.38,398.578,286.702,8.4,30,0,0,15.1023
0.4,399.158,286.858,9,30,0,0,14.9342
0.42,399.738,287.011,9.6,30,0,0,14.7385
0.44,400.318,287.163,10.2,30,0,0,14.5358
0.46,400.899,287.313,10.8,30,0,0,14.3195
0.48,401.481,287.46,11.4,30,0,0,14.0913
0.5,402.063,287.605,12,30,0,0,13.8571
0.52,402.646,287.748,12.6,30,0,0,13.5886
0.54,403.229,287.887,13.2,30,0,0,13.3154
0.56,403.814,288.024,13.8,30,0,0,13.0329
0.58,404.398,288.158,14.4,30,0,0,12.7266
0.6,404.984,288.289,15,30,0,0,12.4085
0.62,405.57,288.416,15.6,30,0,0,12.0655
0.64,406.157,288.54,16.2,30,0,0,11.7152
0.66,406.745,288.66,16.8,30,0,0,11.3505
0.68,407.334,288.776,17.4,30,0,0,10.955
0.7,407.923,288.888,18,30,0,0,10.5442
0.72,408.514,288.996,18.6,30,0,0,10.1113
0.74,409.105,289.099,19.2,30,0,0,9.66613
0.76,409.697,289.198,19.8,30,0,0,9.19659
0.78,410.289,289.291,20.4,30,0,0,8.69661
0.8,410.883,289.38,21,30,0,0,8.18141
0.82,411.477,289.462,21.6,30,0,0,7.63692
0.84,412.072,289.54,22.2,30,0,0,7.07622
0.86,412.668,289.611,22.8,30,0,0,6.48307
0.88,413.264,289.675,23.4,30,0,0,5.85501
0.9,413.861,289.733,24,30,0,0,5.2095
0.92,414.459,289.785,24.6,30,0,0,4.52476
0.94,415.058,289.829,25.2,30,0,0,3.82207
0.96,415.656,289.865,25.8,30,0,0,3.08347
0.98,416.256,289.893,26.4,30,0,0,2.29832
1,416.855,289.913,27,30,0,0,1.48991
1.02,417.455,289.925,27.6,30,0,0,0.629865
1.04,418.055,289.927,28.2,30,0,0,-0.248741
1.06,418.655,289.92,28.8,30,0,0,-1.16447
1.08,419.255,289.903,29.4,30,0,0,-2.13558
1.1,419.854,289.876,30,30,0,0,-3.13439
1.12,420.453,289.838,30.6,30,0,0,-4.20635
1.14,421.051,289.788,31.2,30,0,0,-5.30096
1.16,421.648,289.727,31.8,30,0,0,-6.44085
1.18,422.244,289.654,32.4,30,0,0,-7.62833
1.2,422.837,289.569,33,30,0,0,-8.83961
1.22,423.429,289.47,33.6,30,0,0,-10.1318
1.24,424.019,289.358,34.2,30,0,0,-11.4541
1.26,424.605,289.232,34.8,30,0,0,-12.8366
1.28,425.189,289.092,35.4,30,0,0,-14.2665
1.3,425.768,288.937,36,30,0,0,-15.72
1.32,426.344,288.767,36.6,30,0,0,-17.2418
1.34,426.914,288.582,37.2,30,0,0,-18.7846
1.36,427.48,288.381,37.8,30,0,0,-20.3695
1.38,428.039,288.164,38.4,30,0,0,-21.9915
1.4,428.592,287.932,39,30,0,0,-23.6321
1.42,429.139,287.683,39.6,30,0,0,-25.3193
1.44,429.677,287.419,40.2,30,0,0,-27.0178
1.46,430.207,287.138,40.8,30,0,0,-28.7391
1.48,430.729,286.842,41.4,30,0,0,-30.4688
1.5,431.242,286.53,42,30,0,0,-32.2026
1.52,431.744,286.203,42.6,30,0,0,-33.9339
1.54,432.237,285.86,43.2,30,0,0,-35.6596
1.56,432.719,285.503,43.8,30,0,0,-37.3738
1.58,433.19,285.132,44.4,30,0,0,-39.0674
1.6,433.65,284.747,45,30,0,0,-40.7508
1.62,434.099,284.348,45.6,30,0,0,-42.3911
1.64,434.536,283.938,46.2,30,0,0,-44.0135
1.66,434.962,283.515,46.8,30,0,0,-45.6
1.68,435.376,283.08,47.4,30,0,0,-47.1347
1.7,435.778,282.635,48,30,0,0,-48.6435
1.72,436.169,282.18,48.6,30,0,0,-50.0817
1.74,436.548,281.714,49.2,30,0,0,-51.4959
1.76,436.915,281.24,49.8,30,0,0,-52.8618
1.78,437.272,280.758,50.4,30,0,0,-54.1795
1.8,437.617,280.267,51,30,0,0,-55.473
1.82,437.951,279.769,51.6,30,0,0,-56.6954
1.84,438.275,279.264,52.2,30,0,0,-57.8872
1.86,438.589,278.752,52.8,30,0,0,-59.0177
1.88,438.893,278.235,53.4,30,0,0,-60.1001
1.9,439.187,277.712,54,30,0,0,-61.1583
1.92,439.471,277.184,54.6,30,0,0,-62.1542
1.94,439.747,276.651,55.2,30,0,0,-63.1306
1.96,440.013,276.113,55.8,30,0,0,-64.0683
1.98,440.271,275.571,56.4,30,0,0,-64.9523
2,440.521,275.026,57,30,0,0,-65.8095
2.02,440.763,274.477,57.6,30,0,0,-66.6118
2.04,440.997,273.924,58.2,30,0,0,-67.3993
2.06,441.223,273.369,58.8,30,0,0,-68.1568
2.08,441.443,272.81,59.4,30,0,0,-68.8767
2.1,441.656,272.249,60,30,0,0,-69.5779
2.12,441.862,271.686,60.6,30,0,0,-70.2248
2.14,442.061,271.12,61.2,30,0,0,-70.8607
2.16,442.255,270.552,61.8,30,0,0,-71.4747
2.18,442.442,269.982,62.4,30,0,0,-72.0586
2.2,442.624,269.41,63,30,0,0,-72.6274
2.22,442.8,268.837,63.6,30,0,0,-73.153
2.24,442.971,268.262,64.2,30,30.0004,0,-73.6707
2.26,443.137,267.685,64.8,30,120,0,-74.1725
2.28,443.307,267.077,65.4309,32,150,0,-74.6692
2.3,443.477,266.443,66.0878,35,150,0,-75.1674
2.32,443.662,265.733,66.8215,38,150,0,-75.6952
2.34,443.854,264.964,67.6141,41,150,0,-76.2443
2.36,444.051,264.138,68.4629,44,150,0,-76.795
2.38,444.254,263.253,69.3711,47,150,0,-77.3487
2.4,444.461,262.307,70.3399,50,150,0,-77.9103
2.42,444.672,261.299,71.3695,53,150,0,-78.4625
2.44,444.884,260.23,72.4593,56,150,0,-79.0122
2.46,445.098,259.101,73.6085,59,150,0,-79.5476
2.48,445.311,257.912,74.8163,62,150,0,-80.0767
2.5,445.524,256.662,76.0847,65,150,0,-80.5733
2.52,445.737,255.346,77.4173,68,150,0,-81.0599
2.54,445.947,253.974,78.8057,71,150,0,-81.5206
2.56,446.155,252.538,80.2559,74,150,0,-81.9546
2.58,446.36,251.043,81.7656,77,150,0,-82.3635
2.6,446.563,249.488,83.3333,79.5817,33.333,0,-82.7411
2.62,446.76,247.903,84.9307,80,0,0,-83.0829
2.64,446.948,246.314,86.5307,80,0,0,-83.3825
2.66,447.129,244.724,88.1307,80,0,0,-83.6465
2.68,447.302,243.134,89.7307,80,0,0,-83.8723
2.7,447.47,241.543,91.3307,80,0,0,-84.0623
2.72,447.634,239.951,92.9307,80,0,0,-84.2208
2.74,447.793,238.359,94.5307,80,0,0,-84.3462
2.76,447.949,236.767,96.1307,80,0,0,-84.4439
2.78,448.103,235.174,97.7307,80,0,0,-84.512
2.8,448.255,233.581,99.3307,80,0,0,-84.5532
2.82,448.407,231.988,100.931,80,0,0,-84.5687
2.84,448.558,230.396,102.531,80,0,0,-84.5569
2.86,448.71,228.803,104.131,80,0,0,-84.5216
2.88,448.864,227.21,105.731,80,0,0,-84.4606
2.9,449.019,225.618,107.331,80,0,0,-84.3756
2.92,449.178,224.026,108.931,80,0,0,-84.2674
2.94,449.339,222.434,110.531,80,0,0,-84.1331
2.96,449.505,220.842,112.131,80,0,0,-83.9766
2.98,449.675,219.252,113.731,80,0,0,-83.7953
3,449.851,217.661,115.331,80,0,0,-83.5906
3.02,450.032,216.072,116.931,80,0,0,-83.3627
3.04,450.221,214.483,118.531,80,0,0,-83.1091
3.06,450.416,212.895,120.131,80,0,0,-82.8324
3.08,450.62,211.308,121.731,80,0,0,-82.5297
3.1,450.833,209.722,123.331,80,0,0,-82.2019
3.12,451.054,208.137,124.931,80,0,0,-81.8489
3.14,451.287,206.554,126.531,80,0,0,-81.467
3.16,451.529,204.973,128.131,80,0,0,-81.0589
3.18,451.784,203.393,129.731,80,0,0,-80.6214
3.2,452.051,201.816,131.331,80,0,0,-80.1552
3.22,452.331,200.24,132.931,80,0,0,-79.6599
3.24,452.626,198.668,134.531,80,0,0,-79.1315
3.26,452.935,197.098,136.131,80,0,0,-78.5729
3.28,453.26,195.531,137.731,80,0,0,-77.9795
3.3,453.601,193.968,139.331,80,0,0,-77.3518
3.32,453.961,192.409,140.931,80,0,0,-76.6895
3.34,454.338,190.854,142.531,80,0,0,-75.9852
3.36,454.736,189.304,144.131,80,0,0,-75.2452
3.38,455.153,187.76,145.731,80,0,0,-74.4649
3.4,455.593,186.221,147.331,80,0,0,-73.643
3.42,456.054,184.689,148.931,80,0,0,-72.7793
3.44,456.54,183.165,150.531,80,0,0,-71.8696
3.46,457.05,181.648,152.131,80,0,0,-70.918
3.48,457.586,180.141,153.731,80,0,0,-69.9158
3.5,458.149,178.643,155.331,80,0,0,-68.8636
3.52,458.74,177.156,156.931,80,0,0,-67.7636
3.54,459.36,175.681,158.531,80,0,0,-66.6149
3.56,460.01,174.219,160.131,80,0,0,-65.4168
3.58,460.691,172.772,161.731,80,0,0,-64.1633
3.6,461.404,171.34,163.331,80,0,0,-62.8622
3.62,462.151,169.924,164.931,80,0,0,-61.5159
3.64,462.931,168.527,166.531,80,0,0,-60.1137
3.66,463.745,167.15,168.131,80,0,0,-58.6674
3.68,464.595,165.794,169.731,80,0,0,-57.1795
3.7,465.479,164.461,171.331,80,0,0,-55.6507
3.72,466.4,163.153,172.931,80,0,0,-54.0861
3.74,467.356,161.87,174.531,80,0,0,-52.4913
3.76,468.348,160.615,176.131,80,0,0,-50.8711
3.78,469.375,159.388,177.731,80,0,0,-49.2316
3.8,470.437,158.191,179.331,80,0,0,-47.5816
3.82,471.534,157.026,180.931,80,0,0,-45.9268
3.84,472.663,155.893,182.531,80,0,0,-44.2768
3.86,473.824,154.792,184.131,80,0,0,-42.6365
3.88,475.017,153.725,185.731,80,0,0,-41.0204
3.9,476.238,152.692,187.331,80,0,0,-39.4317
3.92,477.488,151.693,188.931,80,0,0,-37.8739
3.94,478.764,150.728,190.531,80,0,0,-36.3698
3.96,480.064,149.796,192.131,80,0,0,-34.9102
3.98,481.388,148.896,193.731,80,0,0,-33.5067
4,482.732,148.029,195.331,80,-16.5358,0,-32.1718
4.02,484.093,147.195,196.927,79.4183,-142.707,0,-30.9017
4.04,485.437,146.409,198.484,76.5098,-150,0,-29.735
4.06,486.75,145.676,199.988,73.5098,-150,0,-28.6766
4.08,488.016,144.997,201.424,70.5098,-150,0,-27.728
4.1,489.244,144.364,202.806,67.5098,-150,0,-26.8813
4.12,490.426,143.775,204.126,64.5098,-150,0,-26.129
4.14,491.558,143.228,205.384,61.5098,-150,0,-25.4694
4.16,492.644,142.718,206.583,58.5098,-150,0,-24.8901
4.18,493.681,142.243,207.724,55.5098,-150,0,-24.3823
4.2,494.667,141.8,208.805,52.5098,-150,0,-23.9507
4.22,495.601,141.39,209.825,49.5098,-150,0,-23.5782
4.24,496.481,141.009,210.784,46.5098,-150,0,-23.2635
4.26,497.306,140.656,211.681,43.5098,-150,0,-23.0045
4.28,498.077,140.331,212.518,40.5098,-150,0,-22.7839
4.3,498.797,140.03,213.298,37.5098,-150,0,-22.6037
4.32,499.471,139.751,214.028,34.5098,-150,0,-22.4629
4.34,500.069,139.504,214.675,31.5098,-150,0,-22.3487
4.36,500.62,139.278,215.271,28.5098,-150,0,-22.2605
4.38,501.125,139.072,215.816,25.5098,-150,0,-22.1986
4.4,501.552,138.898,216.277,22.5098,-150,0,-22.1536
4.42,501.939,138.741,216.695,19.5098,-150,0,-22.1173
4.44,502.265,138.609,217.047,16.5098,-150,0,-22.0889
4.46,502.426,138.544,217.22,13.5098,-150,0,-22.0822
4.48,502.586,138.478,217.393,10.5098,-150,0,-22.0755
4.5,502.747,138.413,217.566,7.50983,-150,0,-22.0689
4.52,502.907,138.348,217.74,4.50983,-150,0,-22.0622
4.54,503.068,138.283,217.913,1.50983,-150,0,-22.0555
