"time","x","y","position","velocity","acceleration","jerk","heading"
0,471.1,42.7,0,0,180,0,-160.3
0.02,470.921,42.636,0.189737,3.6,180,0,-160.306
0.04,470.743,42.5721,0.379473,7.2,180,0,-160.312
0.06,470.564,42.5081,0.56921,10.8,180,0,-160.319
0.08,470.385,42.4442,0.758947,14.4,180,0,-160.325
0.1,470.207,42.3803,0.948683,18,180,0,-160.331
0.12,469.844,42.2505,1.33418,21.6,180,0,-160.346
0.14,469.412,42.0964,1.79224,25.2,180,0,-160.364
0.16,468.91,41.917,2.3262,28.8,180,0,-160.403
0.18,468.347,41.717,2.92317,32.4,180,0,-160.461
0.2,467.693,41.4852,3.61697,36,180,0,-160.534
0.22,466.984,41.235,4.36898,39.6,180,0,-160.633
0.24,466.208,40.9631,5.19104,43.2,180,0,-160.765
0.26,465.362,40.6689,6.08706,46.8,180,0,-160.924
0.28,464.444,40.3531,7.05782,50.4,180,0,-161.134
0.3,463.454,40.0171,8.10271,54,180,0,-161.386
0.32,462.394,39.663,9.22053,57.6,180,0,-161.696
0.34,461.264,39.2928,10.4098,61.2,180,0,-162.065
0.36,460.065,38.9093,11.6688,64.8,180,0,-162.503
0.38,458.797,38.5155,12.9961,68.4,180,0,-163.006
0.4,457.449,38.1109,14.4042,72,180,0,-163.616
0.42,456.033,37.7034,15.8777,75.6,180,0,-164.313
0.44,454.538,37.2944,17.4275,79.2,180,0,-165.117
0.46,452.972,36.8911,19.0445,82.8,180,0,-166.037
0.48,451.325,36.497,20.7384,86.4,180,0,-167.094
0.5,449.604,36.1208,22.5,89.4972,45,0,-168.284
0.52,447.84,35.7756,24.2972,90,0,0,-169.605
0.54,446.066,35.4723,26.0972,90,0,0,-171.031
0.56,444.284,35.2148,27.8972,90,0,0,-172.555
0.58,442.496,35.0063,29.6972,90,0,0,-174.173
0.6,440.703,34.8498,31.4972,90,0,0,-175.88
0.62,438.906,34.748,33.2972,90,0,0,-177.661
0.64,437.107,34.7031,35.0972,90,0,0,-179.5
0.66,435.307,34.7169,36.8972,90,0,0,178.612
0.68,433.509,34.7904,38.6972,90,0,0,176.703
0.7,431.714,34.9239,40.4972,90,0,0,174.793
0.72,429.924,35.1169,42.2972,90,0,0,172.909
0.74,428.142,35.3681,44.0972,90,0,0,171.071
0.76,426.368,35.6751,45.8972,90,0,0,169.314
0.78,424.605,36.035,47.6972,90,0,0,167.649
0.8,422.852,36.4443,49.4972,90,0,0,166.11
0.82,421.11,36.8987,51.2972,90,0,0,164.697
0.84,419.38,37.3935,53.0972,90,0,0,163.441
0.86,417.659,37.9238,54.8972,90,0,0,162.344
0.88,415.949,38.4844,56.6972,90,0,0,161.414
0.9,414.247,39.0702,58.4972,90,0,0,160.663
0.92,412.552,39.6759,60.2972,90,0,0,160.07
0.94,410.862,40.2964,62.0972,90,0,0,159.657
0.96,409.176,40.9266,63.8972,90,0,0,159.403
0.98,407.492,41.5619,65.6972,90,0,0,159.317
1,405.808,42.1974,67.4972,90,0,0,159.385
1.02,404.122,42.8289,69.2972,90,0,0,159.591
1.04,402.434,43.4521,71.0972,90,0,0,159.94
1.06,400.741,44.0632,72.8972,90,0,0,160.412
1.08,399.042,44.6584,74.6972,90,0,0,160.998
1.1,397.337,45.2347,76.4972,90,0,0,161.696
1.12,395.624,45.7888,78.2972,90,0,0,162.477
1.14,393.904,46.3182,80.0972,90,0,0,163.34
1.16,392.175,46.8204,81.8972,90,0,0,164.274
1.18,390.439,47.2936,83.6972,90,0,0,165.259
1.2,388.694,47.7362,85.4972,90,0,0,166.287
1.22,386.941,48.1469,87.2972,90,0,0,167.344
1.24,385.182,48.5248,89.0972,90,0,0,168.42
1.26,383.415,48.8695,90.8972,90,0,0,169.503
1.28,381.642,49.1807,92.6972,90,0,0,170.583
1.3,379.864,49.4586,94.4972,90,0,0,171.65
1.32,378.08,49.7035,96.2972,90,0,0,172.696
1.34,376.293,49.9163,98.0972,90,0,0,173.715
1.36,374.502,50.0978,99.8972,90,0,0,174.7
1.38,372.709,50.249,101.697,90,0,0,175.643
1.4,370.913,50.3714,103.497,90,0,0,176.542
1.42,369.115,50.4673,105.297,90,0,0,177.286
1.44,367.317,50.5427,107.097,90,0,0,177.894
1.46,365.518,50.6001,108.897,90,0,0,178.436
1.48,363.718,50.6413,110.697,90,0,0,178.922
1.5,361.919,50.6681,112.497,90,0,0,179.36
1.52,360.119,50.6818,114.297,90,0,0,179.756
1.54,358.319,50.6837,116.097,90,0,0,-179.885
1.56,356.519,50.6749,117.897,90,0,0,-179.561
1.58,354.719,50.6564,119.697,90,0,0,-179.268
1.6,352.919,50.6291,121.497,90,0,0,-179.002
1.62,351.119,50.5938,123.297,90,0,0,-178.762
1.64,349.32,50.5514,125.097,90,0,0,-178.546
1.66,347.52,50.5026,126.897,90,0,0,-178.354
1.68,345.721,50.4482,128.697,90,0,0,-178.184
1.7,343.922,50.3887,130.497,90,0,0,-178.038
1.72,342.123,50.3249,132.297,90,0,0,-177.911
1.74,340.325,50.2575,134.097,90,0,0,-177.807
1.76,338.526,50.1872,135.897,90,0,0,-177.724
1.78,336.728,50.1146,137.697,90,0,0,-177.664
1.8,334.929,50.0405,139.497,90,0,0,-177.626
1.82,333.131,49.9656,141.297,90,0,0,-177.612
1.84,331.332,49.8906,143.097,90,0,0,-177.622
1.86,329.534,49.8164,144.897,90,0,0,-177.658
1.88,327.735,49.7436,146.697,90,0,0,-177.719
1.9,325.937,49.6732,148.497,90,0,0,-177.807
1.92,324.138,49.606,150.297,90,0,0,-177.921
1.94,322.339,49.5427,152.097,90,0,0,-178.06
1.96,320.54,49.4842,153.897,90,0,0,-178.223
1.98,318.741,49.4312,155.697,90,0,0,-178.41
2,316.941,49.3844,157.497,90,0,0,-178.615
2.02,315.142,49.3443,159.297,90,0,0,-178.834
2.04,313.342,49.3112,161.097,90,0,0,-179.062
2.06,311.542,49.2853,162.897,90,0,0,-179.292
2.08,309.742,49.2667,164.697,90,0,0,-179.519
2.1,307.942,49.255,166.497,90,0,0,-179.734
2.12,306.142,49.2499,168.297,90,0,0,-179.933
2.14,304.342,49.2507,170.097,90,0,0,179.89
2.16,302.542,49.2567,171.897,90,0,0,179.737
2.18,300.744,49.267,173.695,89.6901,-137.365,0,179.612
2.2,298.98,49.2806,175.459,86.565,-180,0,179.515
2.22,297.284,49.2961,177.156,82.965,-180,0,179.444
2.24,295.661,49.3126,178.779,79.365,-180,0,179.397
2.26,294.111,49.3294,180.329,75.765,-180,0,179.369
2.28,292.631,49.346,181.809,72.165,-180,0,179.355
2.3,291.224,49.3619,183.216,68.565,-180,0,179.352
2.32,289.891,49.3769,184.549,64.965,-180,0,179.359
2.34,288.626,49.391,185.814,61.365,-180,0,179.371
2.36,287.432,49.404,187.009,57.765,-180,0,179.387
2.38,286.316,49.4157,188.125,54.165,-180,0,179.406
2.4,285.27,49.4264,189.17,50.565,-180,0,179.427
2.42,284.295,49.436,190.145,46.965,-180,0,179.449
2.44,283.389,49.4445,191.052,43.365,-180,0,179.47
2.46,282.561,49.4521,191.88,39.765,-180,0,179.49
2.48,281.811,49.4586,192.629,36.165,-180,0,179.509
2.5,281.128,49.4644,193.313,32.565,-180,0,179.527
2.52,280.498,49.4695,193.942,28.965,-180,0,179.544
2.54,279.986,49.4735,194.455,25.365,-180,0,179.558
2.56,279.485,49.4773,194.956,21.765,-180,0,179.572
2.58,279.154,49.4797,195.287,18.165,-128.385,0,179.581
2.6,278.839,49.482,195.601,14.565,-71.7797,0,179.59
2.62,278.525,49.4842,195.916,10.965,-15.174,0,179.599
2.64,278.294,49.4859,196.146,10,0,0,179.605
2.66,278.094,49.4872,196.346,10,0,0,179.611
2.68,277.894,49.4886,196.546,10,0,0,179.616
2.7,277.694,49.4899,196.746,10,0,0,179.622
2.72,277.494,49.4912,196.946,10,0,0,179.627
2.74,277.294,49.4925,197.146,10,0,0,179.633
2.76,277.094,49.4938,197.346,10,0,0,179.638
2.78,276.894,49.495,197.546,10,0,0,179.644
2.8,276.694,49.4963,197.746,10,0,0,179.65
2.82,276.494,49.4975,197.946,10,0,0,179.655
2.84,276.294,49.4987,198.146,10,0,0,179.661
2.86,276.094,49.4998,198.346,10,0,0,179.666
2.88,275.894,49.501,198.546,10,0,0,179.672
2.9,275.694,49.5021,198.746,10,0,0,179.677
2.92,275.494,49.5032,198.946,10,0,0,179.683
2.94,275.294,49.5043,199.146,10,0,0,179.689
2.96,275.094,49.5054,199.346,10,0,0,179.694
2.98,274.894,49.5065,199.546,10,0,0,179.699
3,274.694,49.5075,199.746,10,0,0,179.705
3.02,274.494,49.5085,199.946,10,0,0,179.71
3.04,274.294,49.5095,200.146,10,0,0,179.716
3.06,274.094,49.5105,200.346,10,0,0,179.721
3.08,273.894,49.5115,200.546,10,0,0,179.727
3.1,273.694,49.5124,200.746,10,0,0,179.732
3.12,273.494,49.5133,200.946,10,0,0,179.737
3.14,273.294,49.5143,201.146,10,0,0,179.743
3.16,273.094,49.5151,201.346,10,0,0,179.748
3.18,272.894,49.516,201.546,10,0,0,179.753
3.2,272.694,49.5169,201.746,10,0,0,179.758
3.22,272.494,49.5177,201.946,10,0,0,179.764
3.24,272.294,49.5185,202.146,10,0,0,179.769
3.26,272.094,49.5193,202.346,10,0,0,179.774
3.28,271.894,49.5201,202.546,10,0,0,179.779
3.3,271.694,49.5209,202.746,10,0,0,179.784
3.32,271.494,49.5216,202.946,10,0,0,179.789
3.34,271.294,49.5223,203.146,10,0,0,179.794
3.36,271.094,49.523,203.346,10,0,0,179.799
3.38,270.894,49.5237,203.546,10,0,0,179.804
3.4,270.694,49.5244,203.746,10,0,0,179.809
3.42,270.494,49.5251,203.946,10,0,0,179.814
3.44,270.294,49.5257,204.146,10,0,0,179.819
3.46,270.094,49.5263,204.346,10,0,0,179.824
3.48,269.894,49.5269,204.546,10,0,0,179.828
3.5,269.694,49.5275,204.746,10,0,0,179.833
3.52,269.494,49.5281,204.946,10,0,0,179.838
3.54,269.294,49.5286,205.146,10,0,0,179.842
3.56,269.094,49.5292,205.346,10,0,0,179.847
3.58,268.894,49.5297,205.546,10,0,0,179.851
3.6,268.694,49.5302,205.746,10,0,0,179.856
3.62,268.494,49.5307,205.946,10,0,0,179.86
3.64,268.294,49.5312,206.146,10,0,0,179.865
3.66,268.094,49.5317,206.346,10,0,0,179.869
3.68,267.894,49.5321,206.546,10,0,0,179.873
3.7,267.694,49.5325,206.746,10,0,0,179.877
3.72,267.494,49.533,206.946,10,0,0,179.882
3.74,267.294,49.5334,207.146,10,0,0,179.886
3.76,267.094,49.5338,207.346,10,0,0,179.89
3.78,266.894,49.5341,207.546,10,0,0,179.894
3.8,266.694,49.5345,207.746,10,0,0,179.898
3.82,266.494,49.5348,207.946,10,0,0,179.902
3.84,266.294,49.5352,208.146,10,0,0,179.905
3.86,266.094,49.5355,208.346,10,0,0,179.909
3.88,265.894,49.5358,208.546,10,0,0,179.913
3.9,265.694,49.5361,208.746,10,0,0,179.916
3.92,265.494,49.5364,208.946,10,0,0,179.92
3.94,265.294,49.5367,209.146,10,0,0,179.923
3.96,265.094,49.5369,209.346,10,0,0,179.927
3.98,264.894,49.5372,209.546,10,0,0,179.93
4,264.694,49.5374,209.746,10,0,0,179.934
4.02,264.494,49.5376,209.946,10,0,0,179.937
4.04,264.294,49.5379,210.146,10,0,0,179.94
4.06,264.094,49.5381,210.346,10,0,0,179.943
4.08,263.894,49.5383,210.546,10,0,0,179.946
4.1,263.694,49.5384,210.746,10,0,0,179.949
4.12,263.494,49.5386,210.946,10,0,0,179.952
4.14,263.294,49.5388,211.146,10,0,0,179.955
4.16,263.094,49.5389,211.346,10,0,0,179.957
4.18,262.894,49.5391,211.546,10,0,0,179.96
4.2,262.694,49.5392,211.746,10,0,0,179.963
4.22,262.494,49.5393,211.946,10,0,0,179.965
4.24,262.294,49.5394,212.146,10,0,0,179.968
4.26,262.094,49.5395,212.346,10,0,0,179.97
4.28,261.894,49.5396,212.546,10,0,0,179.972
4.3,261.694,49.5397,212.746,10,0,0,179.975
4.32,261.494,49.5398,212.946,10,0,0,179.977
4.34,261.294,49.5399,213.146,10,0,0,179.979
4.36,261.094,49.54,213.346,10,0,0,179.981
4.38,260.894,49.54,213.546,10,0,0,179.983
4.4,260.694,49.5401,213.746,10,0,0,179.984
4.42,260.494,49.5401,213.946,10,0,0,179.986
4.44,260.294,49.5402,214.146,10,0,0,179.988
4.46,260.094,49.5402,214.346,10,0,0,179.989
4.48,259.894,49.5403,214.546,10,0,0,179.99
4.5,259.694,49.5403,214.746,10,0,0,179.992
4.52,259.494,49.5403,214.946,10,0,0,179.993
4.54,259.294,49.5403,215.146,10,-7.31935,0,179.994
4.56,259.094,49.5404,215.346,10,-17.3194,0,179.995
4.58,258.894,49.5404,215.546,10,-27.3194,0,179.996
4.6,258.694,49.5404,215.746,10,-37.3194,0,179.997
4.62,258.494,49.5404,215.946,10,-47.3194,0,179.998
4.64,258.368,49.5404,216.073,9.26806,-50,0,179.998
4.66,258.268,49.5404,216.173,8.26806,-50,0,179.998
4.68,258.168,49.5404,216.273,7.26806,-50,0,179.998
4.7,258.068,49.5404,216.373,6.26806,-50,0,179.999
4.72,257.968,49.5404,216.473,5.26806,-50,0,179.999
4.74,257.868,49.5404,216.573,4.26806,-50,0,179.999
4.76,257.768,49.5404,216.673,3.26806,-50,0,179.999
4.78,257.668,49.5404,216.773,2.26806,-50,0,179.999
4.8,257.568,49.5404,216.873,1.26806,-50,0,180
4.82,257.468,49.5404,216.973,0.268065,-50,0,180
