"time","x","y","position","velocity","acceleration","jerk","heading"
0,471.1,42.7,0,0,180,0,-160.3
0.02,470.921,42.636,0.189737,3.6,180,0,-160.301
0.04,470.743,42.5721,0.379473,7.2,180,0,-160.302
0.06,470.564,42.5081,0.56921,10.8,180,0,-160.303
0.08,470.385,42.4442,0.758947,14.4,180,0,-160.304
0.1,470.207,42.3802,0.948683,18,180,0,-160.305
0.12,469.844,42.2503,1.33418,21.6,180,0,-160.307
0.14,469.413,42.0959,1.79224,25.2,180,0,-160.309
0.16,468.91,41.916,2.3262,28.8,180,0,-160.315
0.18,468.348,41.7149,2.92317,32.4,180,0,-160.323
0.2,467.695,41.4814,3.61697,36,180,0,-160.333
0.22,466.986,41.2283,4.36898,39.6,180,0,-160.348
0.24,466.212,40.952,5.19104,43.2,180,0,-160.367
0.26,465.368,40.6511,6.08706,46.8,180,0,-160.39
0.28,464.454,40.3255,7.05782,50.4,180,0,-160.422
0.3,463.469,39.9756,8.10271,54,180,0,-160.457
0.32,462.415,39.6021,9.22053,57.6,180,0,-160.504
0.34,461.294,39.2057,10.4098,61.2,180,0,-160.558
0.36,460.107,38.7872,11.6688,64.8,180,0,-160.622
0.38,458.854,38.3476,12.9961,68.4,180,0,-160.698
0.4,457.525,37.8831,14.4042,72,180,0,-160.786
0.42,456.133,37.3994,15.8777,75.6,180,0,-160.887
0.44,454.668,36.8934,17.4275,79.2,180,0,-161.006
0.46,453.139,36.3688,19.0445,82.8,180,0,-161.139
0.48,451.535,35.8233,20.7384,86.4,180,0,-161.292
0.5,449.863,35.2598,22.5028,90,180,0,-161.464
0.52,448.122,34.6791,24.3383,93.6,180,0,-161.658
0.54,446.31,34.0822,26.2457,97.2,180,0,-161.876
0.56,444.428,33.4702,28.2255,100.8,180,0,-162.12
0.58,442.473,32.8447,30.2776,104.4,180,0,-162.392
0.6,440.447,32.2073,32.4018,108,180,0,-162.694
0.62,438.348,31.5601,34.5977,111.6,180,0,-163.03
0.64,436.178,30.9053,36.8648,115.2,180,0,-163.401
0.66,433.933,30.2447,39.205,118.8,180,0,-163.812
0.68,431.614,29.5811,41.6174,122.4,180,0,-164.265
0.7,429.221,28.9179,44.1005,126,180,0,-164.761
0.72,426.751,28.2576,46.6572,129.6,180,0,-165.31
0.74,424.205,27.6043,49.285,133.2,180,0,-165.909
0.76,421.584,26.9619,51.9841,136.8,180,0,-166.565
0.78,418.883,26.3343,54.7568,140.4,180,0,-167.281
0.8,416.105,25.7266,57.601,144,180,0,-168.059
0.82,413.248,25.144,60.517,147.6,180,0,-168.902
0.84,410.317,24.593,63.499,150,0,0,-169.811
0.86,407.36,24.0869,66.499,150,0,0,-170.771
0.88,404.395,23.6314,69.499,150,0,0,-171.772
0.9,401.422,23.2287,72.499,150,0,0,-172.808
0.92,398.442,22.8806,75.499,150,0,0,-173.873
0.94,395.457,22.5886,78.499,150,0,0,-174.959
0.96,392.466,22.3537,81.499,150,0,0,-176.057
0.98,389.471,22.176,84.499,150,0,0,-177.153
1,386.474,22.0555,87.499,150,0,0,-178.237
1.02,383.474,21.9911,90.499,150,0,0,-179.296
1.04,380.474,21.9812,93.499,150,0,0,179.685
1.06,377.475,22.0234,96.499,150,0,0,178.717
1.08,374.476,22.1147,99.499,150,0,0,177.813
1.1,371.479,22.2513,102.499,150,0,0,176.983
1.12,368.485,22.4293,105.499,150,0,0,176.235
1.14,365.492,22.644,108.499,150,0,0,175.577
1.16,362.503,22.8907,111.499,150,0,0,175.012
1.18,359.515,23.1644,114.499,150,0,0,174.542
1.2,356.53,23.4601,117.499,150,0,0,174.166
1.22,353.546,23.7729,120.499,150,0,0,173.883
1.24,350.564,24.0982,123.499,150,0,0,173.688
1.26,347.582,24.4315,126.499,150,0,0,173.574
1.28,344.601,24.7687,129.499,150,0,0,173.537
1.3,341.62,25.106,132.499,150,0,0,173.569
1.32,338.639,25.4399,135.499,150,0,0,173.662
1.34,335.657,25.7676,138.499,150,0,0,173.809
1.36,332.674,26.0864,141.499,150,0,0,174.003
1.38,329.69,26.394,144.499,150,0,0,174.235
1.4,326.704,26.6886,147.499,150,0,0,174.5
1.42,323.717,26.9687,150.499,150,-44.9096,0,174.791
1.44,320.747,27.2315,153.481,147.602,-180,0,175.1
1.46,317.841,27.4726,156.397,144.002,-180,0,175.416
1.48,315.005,27.6921,159.241,140.402,-180,0,175.733
1.5,312.239,27.8909,162.014,136.802,-180,0,176.047
1.52,309.546,28.0697,164.713,133.202,-180,0,176.355
1.54,306.923,28.2299,167.341,129.602,-180,0,176.653
1.56,304.371,28.3728,169.898,126.002,-180,0,176.939
1.58,301.891,28.4994,172.381,122.402,-180,0,177.213
1.6,299.481,28.6112,174.793,118.802,-180,0,177.473
1.62,297.143,28.7093,177.134,115.202,-180,0,177.719
1.64,294.877,28.7949,179.401,111.602,-180,0,177.95
1.66,292.682,28.8693,181.597,108.002,-180,0,178.165
1.68,290.559,28.9335,183.721,104.402,-180,0,178.366
1.7,288.508,28.9887,185.773,100.802,-180,0,178.551
1.72,286.528,29.0357,187.753,97.2024,-180,0,178.722
1.74,284.621,29.0756,189.66,93.6024,-180,0,178.879
1.76,282.786,29.1092,191.496,90.0024,-180,0,179.022
1.78,281.022,29.1372,193.26,86.4024,-180,0,179.152
1.8,279.328,29.1605,194.954,82.8024,-180,0,179.27
1.82,277.711,29.1796,196.571,79.2024,-180,0,179.375
1.84,276.161,29.1952,198.121,75.6024,-180,0,179.469
1.86,274.688,29.2077,199.595,72.0024,-180,0,179.552
1.88,273.28,29.2178,201.003,68.4024,-180,0,179.627
1.9,271.952,29.2257,202.33,64.8024,-180,0,179.69
1.92,270.693,29.2318,203.589,61.2024,-180,0,179.746
1.94,269.504,29.2366,204.779,57.6024,-180,0,179.794
1.96,268.386,29.2402,205.897,54.0024,-180,0,179.834
1.98,267.341,29.2429,206.941,50.4024,-180,0,179.87
2,266.371,29.2448,207.912,46.8024,-180,0,179.897
2.02,265.474,29.2462,208.808,43.2024,-180,0,179.921
2.04,264.652,29.2472,209.63,39.6024,-180,0,179.939
2.06,263.9,29.2479,210.383,36.0024,-180,0,179.954
2.08,263.206,29.2483,211.076,32.4024,-180,0,179.968
2.1,262.609,29.2486,211.673,28.8024,-180,0,179.975
2.12,262.075,29.2488,212.207,25.2024,-180,0,179.982
2.14,261.617,29.2489,212.666,21.6024,-180,0,179.987
2.16,261.232,29.249,213.051,18.0024,-180,0,179.992
2.18,261.042,29.249,213.241,14.4024,-180,0,179.993
2.2,260.852,29.249,213.431,10.8024,-180,0,179.993
2.22,260.662,29.249,213.62,7.20241,-180,0,179.994
2.24,260.473,29.249,213.81,3.60241,-180,0,179.995
2.26,260.283,29.249,214,0.00240962,-180,0,179.996
