"time","x","y","position","velocity","acceleration","jerk","heading"
0,381.353,100.378,0,0,0,0,-68.4
0.02,381.393,100.276,0.109458,5.4729,273.645,13682.3,-68.4004
0.04,381.434,100.174,0.219285,5.49135,0.922576,-13636.1,-68.4008
0.06,381.474,100.072,0.328717,5.47159,-0.988026,-95.5301,-68.4013
0.08,381.514,99.9715,0.437245,5.42638,-2.26045,-63.6213,-68.4017
0.1,381.555,99.8696,0.547072,5.49135,3.24848,275.446,-68.4021
0.12,381.595,99.7677,0.65653,5.4729,-0.922576,-208.553,-68.4025
0.14,381.635,99.6658,0.765988,5.4729,-5.80123e-09,46.1288,-68.4029
0.16,381.676,99.564,0.875789,5.49004,0.857127,42.8564,-68.4034
0.18,381.716,99.4621,0.985247,5.4729,-0.857127,-85.7127,-68.4038
0.2,381.806,99.2357,1.22878,12.1768,335.195,16802.6,-68.4063
0.22,381.902,98.9903,1.49248,13.185,50.4108,-14239.2,-68.4091
0.24,382,98.745,1.75655,13.2034,0.921144,-2474.48,-68.4119
0.26,382.1,98.4938,2.02686,13.5152,15.5896,733.425,-68.415
0.28,382.225,98.1742,2.37021,17.1676,182.616,8351.34,-68.4207
0.3,382.352,97.8556,2.713,17.1394,-1.40759,-9201.2,-68.4264
0.32,382.482,97.5251,3.06826,17.7631,31.1822,1629.49,-68.4327
0.34,382.631,97.1472,3.47449,20.3115,127.423,4812.03,-68.4415
0.36,382.782,96.7684,3.88201,20.3764,3.24427,-6208.93,-68.4503
0.38,382.945,96.3531,4.3285,22.3241,97.3839,4706.98,-68.4614
0.4,383.114,95.924,4.78965,23.0578,36.6875,-3034.82,-68.4732
0.42,383.294,95.4693,5.27856,24.4454,69.3785,1634.55,-68.4868
0.44,383.481,94.9948,5.78835,25.4897,52.2141,-858.22,-68.5015
0.46,383.678,94.4946,6.32614,26.8892,69.9741,887.998,-68.5178
0.48,383.88,93.9794,6.87963,27.6748,39.283,-1534.55,-68.5351
0.5,384.096,93.4319,7.46797,29.4167,87.0927,2390.48,-68.5541
0.52,384.316,92.872,8.06958,30.0806,33.1985,-2694.71,-68.5738
0.54,384.547,92.2827,8.70249,31.6456,78.2478,2252.47,-68.5949
0.56,384.786,91.6726,9.35772,32.7613,55.7853,-1123.13,-68.6166
0.58,385.031,91.0451,10.0317,33.6984,46.8572,-446.406,-68.6387
0.6,385.287,90.3896,10.7353,35.1825,74.203,1367.29,-68.6613
0.62,385.552,89.7117,11.4632,36.3921,60.4791,-686.196,-68.6837
0.64,385.824,89.0138,12.2121,37.4468,52.737,-387.104,-68.7057
0.66,386.104,88.295,12.9835,38.5703,56.1712,171.709,-68.727
0.68,386.394,87.5498,13.7832,39.9861,70.7906,730.971,-68.7469
0.7,386.693,86.7809,14.6083,41.2531,63.3528,-371.892,-68.7647
0.72,387,85.9902,15.4564,42.4053,57.6094,-287.169,-68.78
0.74,387.316,85.1768,16.329,43.6282,61.1449,176.775,-68.7923
0.76,387.64,84.3402,17.2261,44.8575,61.4635,15.9311,-68.8008
0.78,387.974,83.4803,18.1485,46.12,63.1242,83.0356,-68.8047
0.8,388.317,82.5965,19.0966,47.4036,64.1796,52.7713,-68.8031
0.82,388.669,81.6885,20.0703,48.6855,64.0976,-4.10083,-68.7951
0.84,389.03,80.7564,21.0701,49.9906,65.2552,57.8809,-68.7796
0.86,389.402,79.7997,22.0967,51.3269,66.8155,78.0142,-68.7556
0.88,389.784,78.8182,23.1496,52.6453,65.9209,-44.7322,-68.7217
0.9,390.176,77.812,24.2295,53.9978,67.6237,85.1394,-68.677
0.92,390.579,76.7809,25.3368,55.362,68.2091,29.2728,-68.6199
0.94,390.993,75.7247,26.4711,56.7191,67.8531,-17.8026,-68.5492
0.96,391.419,74.6433,27.6335,58.1171,69.9013,102.409,-68.4635
0.98,391.857,73.5367,28.8236,59.5052,69.4081,-24.6576,-68.3611
1,392.308,72.4047,30.042,60.919,70.687,63.9425,-68.2404
1.02,392.768,71.2563,31.279,61.8536,46.7315,-1197.77,-68.0983
1.04,393.232,70.1044,32.5211,62.1033,12.4846,-1712.34,-67.9375
1.06,393.702,68.9491,33.7683,62.3599,12.828,17.1731,-67.7568
1.08,394.178,67.7904,35.021,62.6364,13.8255,49.8713,-67.5551
1.1,394.662,66.6281,36.2799,62.9413,15.247,71.0776,-67.3314
1.12,395.152,65.4614,37.5454,63.2777,16.8197,78.6357,-67.0812
1.14,395.649,64.291,38.817,63.5795,15.0912,-86.4258,-66.8065
1.16,396.156,63.117,40.0959,63.9448,18.2617,158.526,-66.506
1.18,396.672,61.9392,41.3816,64.2839,16.9565,-65.2591,-66.1781
1.2,397.199,60.7552,42.6776,64.7991,25.7624,440.293,-65.8115
1.22,397.736,59.5704,43.9782,65.0335,11.7161,-702.317,-65.4268
1.24,398.286,58.3791,45.2903,65.6055,28.6024,844.319,-64.9986
1.26,398.849,57.1845,46.6111,66.0359,21.5219,-354.029,-64.5389
1.28,399.425,55.9875,47.9393,66.4125,18.8264,-134.773,-64.0484
1.3,400.018,54.7827,49.2822,67.1451,36.6317,890.263,-63.5025
1.32,400.625,53.5774,50.632,67.4914,17.3129,-965.939,-62.9294
1.34,401.254,52.3644,51.9981,68.3046,40.6629,1167.5,-62.2953
1.36,401.901,51.149,53.3751,68.8493,27.232,-671.544,-61.6196
1.38,402.569,49.9302,54.765,69.497,32.3856,257.677,-60.8945
1.4,403.26,48.7064,56.1706,70.2769,38.9944,330.439,-60.1086
1.42,403.977,47.4792,57.5918,71.0603,39.1694,8.75387,-59.2629
1.44,404.722,46.2481,59.0307,71.9436,44.1683,249.941,-58.3504
1.46,405.496,45.0155,60.486,72.7649,41.0649,-155.167,-57.3754
1.48,406.303,43.779,61.9627,73.8366,53.5849,625.999,-56.3186
1.5,407.141,42.5465,63.4534,74.5329,34.8163,-938.428,-55.2088
1.52,408.024,41.3038,64.9778,76.2228,84.4914,2483.75,-53.9696
1.54,408.944,40.0674,66.5189,77.0522,41.4713,-2151,-52.666
1.56,409.91,38.8316,68.0874,78.4295,68.8655,1369.71,-51.2585
1.58,410.921,37.6046,69.677,79.4774,52.397,-823.429,-49.7714
1.6,411.987,36.379,71.3011,81.2061,86.4349,1701.9,-48.1502
1.62,413.104,35.1665,72.9503,82.4589,62.6386,-1189.82,-46.4332
1.64,414.284,33.9658,74.6332,84.1433,84.2177,1078.96,-44.5901
1.66,415.52,32.7861,76.3423,85.4576,65.7169,-925.043,-42.6444
1.68,416.823,31.6286,78.0847,87.1213,83.183,873.307,-40.5731
1.7,418.189,30.5018,79.8556,88.541,70.9857,-609.865,-38.3903
1.72,419.621,29.4128,81.6544,89.9434,70.1189,-43.3421,-36.1026
1.74,421.123,28.3639,83.4871,91.634,84.5323,720.672,-33.6859
1.76,422.684,27.3709,85.3372,92.5041,43.5026,-2051.49,-31.201
1.78,424.308,26.4361,87.2109,93.6863,59.1099,780.368,-28.6276
1.8,425.986,25.5696,89.0988,94.3946,35.4148,-1184.76,-25.9994
1.82,427.712,24.7771,90.9983,94.9735,28.9479,-323.346,-23.3291
1.84,429.476,24.0644,92.9014,95.1569,9.16729,-989.029,-20.6404
1.86,431.272,23.4358,94.804,95.1307,-1.30701,-523.715,-17.9578
1.88,433.086,22.8941,96.6965,94.6239,-25.3422,-1201.76,-15.3094
1.9,434.911,22.4392,98.5779,94.0677,-27.8108,-123.431,-12.7088
1.92,436.736,22.0701,100.44,93.1174,-47.5105,-984.985,-10.1777
1.94,438.549,21.7847,102.275,91.7284,-69.454,-1097.17,-7.75207
1.96,440.343,21.5783,104.08,90.2833,-72.2521,-139.905,-5.41857
1.98,442.084,21.4472,105.827,87.3073,-148.8,-3827.38,-3.2418
2,443.77,21.3825,107.514,84.3937,-145.68,155.993,-1.19801
2.02,445.389,21.3756,109.133,80.9136,-174.006,-1416.3,0.670919
2.04,446.942,21.4179,110.687,77.7087,-160.246,687.988,2.39658
2.06,448.439,21.5022,112.186,74.9597,-137.449,1139.88,3.99891
2.08,449.869,21.621,113.621,71.7562,-160.175,-1136.31,5.4485
2.1,451.247,21.7694,115.007,69.2709,-124.267,1795.4,6.79866
2.12,452.563,21.9412,116.334,66.3701,-145.037,-1038.5,8.02062
2.14,453.828,22.1329,117.614,63.9923,-118.893,1307.17,9.15024
2.16,455.041,22.3399,118.844,61.4863,-125.299,-320.274,10.1816
2.18,456.202,22.559,120.026,59.1057,-119.028,313.538,11.1208
2.2,457.32,22.7881,121.167,57.0717,-101.701,866.373,11.9949
2.22,458.387,23.0225,122.259,54.5844,-124.365,-1133.22,12.7662
2.24,459.414,23.2623,123.313,52.7266,-92.8889,1573.81,13.4993
2.26,460.388,23.5023,124.317,50.1893,-126.868,-1698.94,14.1313
2.28,461.328,23.7444,125.287,48.5153,-83.7011,2158.33,14.7254
2.3,462.23,23.9866,126.222,46.7217,-89.677,-298.798,15.2691
2.32,463.094,24.2267,127.119,44.8336,-94.4052,-236.407,15.7524
2.34,463.922,24.4642,127.98,43.0719,-88.0849,316.015,16.2056
2.36,464.709,24.696,128.8,40.9933,-103.932,-792.337,16.5975
2.38,465.466,24.9247,129.591,39.5757,-70.8789,1652.63,16.9595
2.4,466.197,25.1502,130.356,38.2101,-68.2801,129.941,17.3
2.42,466.88,25.3651,131.072,35.8203,-119.491,-2560.54,17.5819
2.44,467.543,25.577,131.768,34.8126,-50.385,3455.3,17.8475
2.46,468.175,25.7821,132.432,33.1985,-80.7038,-1515.94,18.0944
2.48,468.772,25.9785,133.06,31.411,-89.375,-433.56,18.3065
2.5,469.35,26.1707,133.67,30.4593,-47.588,2089.35,18.4999
2.52,469.881,26.3496,134.231,28.0439,-120.766,-3658.91,18.6594
2.54,470.405,26.5275,134.784,27.6765,-18.3705,5119.79,18.8134
2.56,470.878,26.6893,135.284,24.995,-134.078,-5785.36,18.9344
2.58,471.346,26.8505,135.779,24.7545,-12.0241,6102.68,19.0521
2.6,471.768,26.9966,136.226,22.3289,-121.281,-5462.86,19.145
2.62,472.175,27.1383,136.657,21.5478,-39.0539,4111.37,19.2299
2.64,472.561,27.2733,137.065,20.4342,-55.6803,-831.321,19.3058
2.66,472.9,27.3922,137.424,17.9502,-124.201,-3426.04,19.3614
2.68,473.239,27.5115,137.783,17.9581,0.397221,6229.92,19.4171
2.7,473.544,27.6193,138.107,16.181,-88.8571,-4462.71,19.4623
2.72,473.801,27.7101,138.38,13.6531,-126.396,-1876.92,19.4927
2.74,474.058,27.8012,138.652,13.6079,-2.25539,6207.01,19.523
2.76,474.314,27.8924,138.924,13.6109,0.149134,120.226,19.5534
2.78,474.476,27.9496,139.096,8.58799,-251.147,-12564.8,19.5693
2.8,474.581,27.987,139.207,5.56271,-151.264,4994.14,19.5766
2.82,474.686,28.0244,139.319,5.5657,0.149458,7570.68,19.584
2.84,474.791,28.0618,139.43,5.56271,-0.149457,-14.9458,19.5913
2.86,474.895,28.0991,139.541,5.56402,0.0654501,10.7454,19.5987
2.88,475.001,28.1366,139.654,5.61281,2.43954,118.704,19.6061
2.9,475.106,28.174,139.765,5.56439,-2.42098,-243.026,19.6134
2.92,475.211,28.2115,139.876,5.5657,0.0654503,124.321,19.6208
2.94,475.316,28.2489,139.988,5.5657,4.30058e-07,-3.27249,19.6282
