"time","x","y","position","velocity","acceleration","jerk","heading"
0,377.392,96.4781,0,0,0,0,-68.4
0.02,377.425,96.3951,0.0893197,4.46598,223.299,11165,-68.4
0.04,377.458,96.3121,0.178639,4.46598,-5.25358e-11,-11165,-68.4
0.06,377.491,96.2291,0.267959,4.46598,5.25358e-11,5.25358e-09,-68.4
0.08,377.524,96.1452,0.358182,4.51117,2.25956,112.978,-68.4001
0.1,377.557,96.0622,0.447502,4.46598,-2.25956,-225.956,-68.4001
0.12,377.59,95.9792,0.536822,4.46598,-5.23581e-11,112.978,-68.4001
0.14,377.622,95.8962,0.625777,4.44775,-0.911515,-45.5757,-68.4001
0.16,377.655,95.8132,0.715096,4.46598,0.911515,91.1515,-68.4001
0.18,377.688,95.7302,0.804416,4.46598,1.94511e-11,-45.5757,-68.4001
0.2,377.721,95.6462,0.89464,4.51117,2.25956,112.978,-68.4002
0.22,377.754,95.5632,0.983959,4.46598,-2.25956,-225.956,-68.4002
0.24,377.825,95.3842,1.17653,9.62834,258.118,13018.9,-68.4002
0.26,377.905,95.1832,1.39286,10.8168,59.4213,-9934.84,-68.4002
0.28,377.984,94.9822,1.60883,10.7984,-0.919494,-3017.04,-68.4002
0.3,378.064,94.7812,1.82514,10.8155,0.854044,88.6769,-68.4003
0.32,378.148,94.5692,2.0532,11.4031,29.3801,1426.3,-68.4002
0.34,378.251,94.3076,2.33437,14.0587,132.779,5169.97,-68.4001
0.36,378.355,94.0459,2.61594,14.0784,0.985186,-6589.71,-68.3999
0.38,378.459,93.7842,2.89757,14.0817,0.166871,-40.9157,-68.3998
0.4,378.574,93.4916,3.212,15.7213,81.9797,4090.64,-68.3993
0.42,378.697,93.181,3.54604,16.702,49.0332,-1647.32,-68.3987
0.44,378.821,92.8705,3.88008,16.702,1.11378e-09,-2451.66,-68.3981
0.46,378.955,92.5331,4.24312,18.1522,72.5141,3625.7,-68.397
0.48,379.094,92.1805,4.62222,18.9548,40.1292,-1619.24,-68.3956
0.5,379.234,91.8278,5.00168,18.9732,0.920394,-1960.44,-68.3942
0.52,379.388,91.4376,5.4213,20.9806,100.371,4972.52,-68.3916
0.54,379.542,91.0474,5.84088,20.9793,-0.0654499,-5021.81,-68.3891
0.56,379.706,90.6359,6.28357,22.1344,57.7509,2890.82,-68.3856
0.58,379.874,90.2112,6.74043,22.8432,35.4441,-1115.34,-68.3815
0.6,380.048,89.7732,7.21153,23.5547,35.5752,6.55391,-68.3766
0.62,380.228,89.3166,7.70262,24.5547,49.9974,721.11,-68.3705
0.64,380.414,88.8485,8.20611,25.1745,30.9921,-950.265,-68.3635
0.66,380.608,88.362,8.72989,26.1889,50.7171,986.248,-68.3549
0.68,380.806,87.8622,9.26738,26.8745,34.2821,-821.747,-68.345
0.7,381.01,87.3472,9.82142,27.7019,41.3703,354.407,-68.3336
0.72,381.222,86.8147,10.3946,28.6604,47.9227,327.624,-68.3199
0.74,381.438,86.2726,10.978,29.1695,25.4584,-1123.22,-68.3049
0.76,381.662,85.7066,11.587,30.4502,64.0354,1928.85,-68.2864
0.78,381.891,85.1318,12.2057,30.9354,24.2562,-1988.96,-68.2663
0.8,382.129,84.5388,12.8444,31.9349,49.9748,1285.93,-68.2429
0.82,382.371,83.9292,13.5006,32.8071,43.6105,-318.214,-68.216
0.84,382.62,83.3081,14.1696,33.4525,32.2737,-566.837,-68.1866
0.86,382.876,82.6676,14.8595,34.4936,52.053,988.962,-68.1525
0.88,383.14,82.0112,15.5669,35.3716,43.9015,-407.575,-68.1141
0.9,383.409,81.3419,16.2884,36.0713,34.9845,-445.849,-68.0719
0.92,383.686,80.6565,17.0274,36.9526,44.066,454.076,-68.0248
0.94,383.97,79.9517,17.7874,38,52.367,415.05,-67.9711
0.96,384.261,79.2327,18.5629,38.7765,38.8231,-677.199,-67.912
0.98,384.559,78.4992,19.3548,39.5942,40.8887,103.281,-67.8472
1,384.864,77.7506,20.1632,40.4209,41.3351,22.3223,-67.776
1.02,385.176,76.991,20.9844,41.0563,31.7705,-478.233,-67.6964
1.04,385.489,76.2303,21.8067,41.1184,3.10236,-1433.41,-67.611
1.06,385.803,75.4688,22.6305,41.1882,3.49157,19.4607,-67.5196
1.08,386.119,74.7062,23.4559,41.27,4.08857,29.8501,-67.422
1.1,386.437,73.9427,24.2832,41.3644,4.72252,31.6972,-67.318
1.12,386.758,73.1776,25.1126,41.4725,5.40515,34.1315,-67.2051
1.14,387.081,72.4114,25.9442,41.5773,5.23561,-8.47657,-67.0854
1.16,387.406,71.6443,26.7773,41.6541,3.84361,-69.6003,-66.9585
1.18,387.733,70.8762,27.6124,41.7566,5.12379,64.0092,-66.8243
1.2,388.064,70.107,28.4496,41.862,5.26865,7.24303,-66.6826
1.22,388.398,69.3363,29.2896,41.9977,6.78728,75.9315,-66.5304
1.24,388.734,68.5644,30.1313,42.087,4.46216,-116.256,-66.3701
1.26,389.073,67.7915,30.9756,42.2158,6.44112,98.9476,-66.2014
1.28,389.416,67.0175,31.8221,42.323,5.35997,-54.0575,-66.0241
1.3,389.762,66.2426,32.6707,42.4299,5.3436,-0.818248,-65.8379
1.32,390.112,65.4658,33.5228,42.6066,8.83969,174.804,-65.6394
1.34,390.466,64.688,34.3772,42.7189,5.6127,-161.349,-65.4313
1.36,390.824,63.9093,35.2342,42.8517,6.64106,51.4181,-65.2133
1.38,391.186,63.1294,36.0941,42.9937,7.09753,22.8236,-64.9851
1.4,391.553,62.3485,36.9567,43.1312,6.87378,-11.1876,-64.7464
1.42,391.923,61.5657,37.8228,43.301,8.49135,80.8783,-64.4928
1.44,392.301,60.7808,38.6938,43.5524,12.5721,204.036,-64.2227
1.46,392.681,59.9961,39.566,43.609,2.82734,-487.236,-63.9461
1.48,393.067,59.2111,40.4407,43.7342,6.26339,171.802,-63.6608
1.5,393.46,58.4229,41.3215,44.0402,15.2995,451.804,-63.3524
1.52,393.858,57.6359,42.2032,44.0883,2.40169,-644.889,-63.0407
1.54,394.262,56.8456,43.0909,44.3852,14.8457,622.199,-62.7047
1.56,394.673,56.0551,43.9818,44.5433,7.90717,-346.925,-62.3579
1.58,395.09,55.2646,44.8754,44.6782,6.74278,-58.2197,-62.0001
1.6,395.515,54.4712,45.7756,45.0124,16.7112,498.423,-61.6173
1.62,395.947,53.6786,46.6784,45.1365,6.20596,-525.264,-61.2257
1.64,396.387,52.8833,47.5872,45.4404,15.1925,449.329,-60.8092
1.66,396.835,52.0878,48.5004,45.662,11.0835,-205.45,-60.3776
1.68,397.292,51.2924,49.4173,45.8459,9.19359,-94.4972,-59.9311
1.7,397.757,50.4953,50.3402,46.1424,14.8256,281.598,-59.4606
1.72,398.233,49.6976,51.269,46.4439,15.0725,12.3487,-58.9698
1.74,398.717,48.899,52.2032,46.7065,13.1313,-97.0596,-58.457
1.76,399.212,48.1002,53.1428,46.9837,13.8607,36.4656,-57.9223
1.78,399.718,47.3013,54.0884,47.2764,14.637,38.8197,-57.3668
1.8,400.235,46.5036,55.0388,47.5195,12.1515,-124.279,-56.793
1.82,400.764,45.7023,55.9994,48.0308,25.5682,670.836,-56.1783
1.84,401.306,44.904,56.9638,48.2228,9.59763,-798.527,-55.5507
1.86,401.86,44.1049,57.9365,48.6348,20.5981,550.025,-54.891
1.88,402.429,43.3057,58.9175,49.0495,20.7354,6.86358,-54.2
1.9,403.009,42.5114,59.9013,49.1871,6.88177,-692.681,-53.4987
1.92,403.609,41.712,60.9006,49.9653,38.911,1601.46,-52.7374
1.94,404.222,40.9168,61.9044,50.1908,11.2737,-1381.87,-51.9576
1.96,404.85,40.1241,62.9162,50.5901,19.9652,434.579,-51.1483
1.98,405.497,39.3335,63.9377,51.075,24.2475,214.112,-50.3042
2,406.161,38.5459,64.9674,51.4872,20.6061,-182.069,-49.4255
2.02,406.842,37.763,66.0051,51.8829,19.7887,-40.869,-48.5176
2.04,407.545,36.9807,67.057,52.5948,35.5912,790.126,-47.5563
2.06,408.266,36.2047,68.1162,52.9592,18.2229,-868.417,-46.5644
2.08,409.006,35.4362,69.1833,53.3578,19.9291,85.311,-45.544
2.1,409.77,34.6725,70.2633,53.9995,32.085,607.795,-44.4762
2.12,410.556,33.915,71.355,54.5832,29.1831,-145.097,-43.3619
2.14,411.362,33.1684,72.4538,54.941,17.891,-564.607,-42.2209
2.16,412.192,32.4301,73.5643,55.5229,29.0953,560.218,-41.0329
2.18,413.047,31.7019,74.6873,56.1525,31.479,119.182,-39.799
2.2,413.922,30.9884,75.8164,56.4534,15.0477,-821.562,-38.5421
2.22,414.823,30.2864,76.9592,57.1413,34.394,967.316,-37.2317
2.24,415.75,29.5989,78.1133,57.7061,28.2401,-307.694,-35.8809
2.26,416.699,28.9296,79.2739,58.0284,16.1166,-606.177,-34.5017
2.28,417.67,28.2793,80.4428,58.4462,20.8879,238.564,-33.0935
2.3,418.666,27.6477,81.6227,58.993,27.3414,322.676,-31.6437
2.32,419.685,27.0374,82.8105,59.3902,19.8604,-374.052,-30.1612
2.34,420.725,26.4514,84.0035,59.6516,13.0688,-339.577,-28.6605
2.36,421.785,25.89,85.2032,59.9857,16.702,181.659,-27.1339
2.38,422.864,25.3545,86.4083,60.2516,13.2991,-170.145,-25.5841
2.4,423.962,24.8475,87.6173,60.454,10.1185,-159.028,-24.0244
2.42,425.075,24.3695,88.829,60.5806,6.32873,-189.491,-22.4517
2.44,426.203,23.9215,90.042,60.6508,3.50928,-140.972,-20.8724
2.46,427.342,23.5049,91.2552,60.659,0.411889,-154.87,-19.2927
2.48,428.493,23.1199,92.4683,60.658,-0.0510669,-23.1478,-17.7158
2.5,429.652,22.7671,93.6798,60.5732,-4.23791,-209.342,-16.1428
2.52,430.815,22.4477,94.8861,60.3178,-12.771,-426.656,-14.5927
2.54,431.983,22.1605,96.0887,60.1305,-9.36655,170.224,-13.0553
2.56,433.152,21.9057,97.2856,59.8417,-14.4365,-253.499,-11.5369
2.58,434.322,21.683,98.4765,59.546,-14.7857,-17.4608,-10.044
2.6,435.489,21.4918,99.6595,59.1487,-19.866,-254.015,-8.58306
2.62,436.654,21.3312,100.835,58.7634,-19.2677,29.9159,-7.14767
2.64,437.81,21.2007,101.999,58.2079,-27.7718,-425.203,-5.75678
2.66,438.961,21.0988,103.154,57.7371,-23.54,211.59,-4.40216
2.68,440.105,21.0243,104.3,57.3156,-21.075,123.25,-3.07809
2.7,441.243,20.9761,105.439,56.9597,-17.7984,163.83,-1.78135
2.72,442.362,20.9536,106.558,55.9631,-49.8271,-1601.43,-0.562446
2.74,443.475,20.9546,107.672,55.6611,-15.0995,1736.38,0.633996
2.76,444.577,20.9784,108.774,55.1266,-26.7263,-581.34,1.78888
2.78,445.666,21.0233,109.864,54.4904,-31.81,-254.187,2.8971
2.8,446.745,21.0883,110.945,54.035,-22.7694,452.033,3.96756
2.82,447.81,21.1722,112.014,53.4454,-29.4805,-335.557,4.99675
2.84,448.861,21.2733,113.069,52.7668,-33.9308,-222.517,5.96943
2.86,449.901,21.3911,114.116,52.3463,-21.0223,645.425,6.91229
2.88,450.931,21.5247,115.154,51.9072,-21.9549,-46.6269,7.82324
2.9,451.942,21.6716,116.176,51.1168,-39.523,-878.405,8.67134
2.92,452.946,21.8322,117.192,50.795,-16.0889,1171.7,9.49572
2.94,453.934,22.0048,118.196,50.1663,-31.4352,-767.316,10.2726
2.96,454.905,22.1877,119.183,49.3966,-38.4868,-352.579,11.0105
2.98,455.854,22.3788,120.151,48.3862,-50.5185,-601.583,11.7105
3,456.773,22.5751,121.092,47.0246,-68.0795,-878.054,12.3619
3.02,457.656,22.7738,121.997,45.2405,-89.2036,-1056.2,12.9559
3.04,458.515,22.9761,122.879,44.1316,-55.4474,1687.81,13.5175
3.06,459.351,23.1812,123.739,43.0089,-56.1359,-34.4258,14.046
3.08,460.154,23.3863,124.569,41.4689,-76.9992,-1043.16,14.5254
3.1,460.931,23.5911,125.372,40.1798,-64.4533,627.297,14.9759
3.12,461.687,23.7967,126.156,39.1657,-50.7079,687.266,15.3988
3.14,462.416,24.0005,126.913,37.8631,-65.1301,-721.108,15.7808
3.16,463.12,24.2016,127.644,36.5779,-64.2559,43.7085,16.1398
3.18,463.806,24.4027,128.36,35.7692,-40.4345,1191.07,16.4802
3.2,464.462,24.5987,129.044,34.2005,-78.4387,-1900.21,16.7765
3.22,465.097,24.7924,129.708,33.232,-48.4228,1500.79,17.0592
3.24,465.72,24.985,130.36,32.5692,-33.1429,763.995,17.3321
3.26,466.308,25.1702,130.976,30.8291,-87.0035,-2693.03,17.5688
3.28,466.889,25.3555,131.586,30.4988,-16.5125,3524.55,17.7979
3.3,467.433,25.5314,132.158,28.6025,-94.819,-3915.33,17.9919
3.32,467.973,25.7075,132.726,28.3661,-11.8196,4149.97,18.1819
3.34,468.478,25.8743,133.258,26.6007,-88.269,-3822.47,18.3436
3.36,468.979,26.0414,133.786,26.4332,-8.37484,3994.71,18.5029
3.38,469.444,26.1976,134.277,24.5114,-96.0898,-4385.75,18.6346
3.4,469.909,26.3548,134.767,24.5274,0.798955,4844.44,18.7663
3.42,470.335,26.5005,135.218,22.536,-99.5683,-5018.36,18.8734
3.44,470.758,26.6452,135.665,22.3396,-9.82266,4487.28,18.9772
3.46,471.157,26.7831,136.087,21.1333,-60.3103,-2524.38,19.0683
3.48,471.535,26.9139,136.487,19.9712,-58.106,110.214,19.1467
3.5,471.912,27.0452,136.886,19.9781,0.344696,2922.53,19.225
3.52,472.248,27.1625,137.242,17.768,-110.508,-5542.64,19.2835
3.54,472.576,27.2776,137.59,17.4119,-17.8043,4635.2,19.3387
3.56,472.905,27.3931,137.938,17.4181,0.313813,905.905,19.394
3.58,473.186,27.4924,138.237,14.9144,-125.188,-6275.09,19.4316
3.6,473.46,27.5892,138.527,14.5107,-20.1831,5250.25,19.4665
3.62,473.733,27.6861,138.817,14.5128,0.101387,1014.22,19.5013
3.64,473.987,27.7759,139.086,13.436,-53.8356,-2696.85,19.5308
3.66,474.195,27.8497,139.307,11.052,-119.2,-3268.23,19.5484
3.68,474.402,27.9236,139.527,11.0049,-2.35574,5842.22,19.566
3.7,474.611,27.9975,139.748,11.0537,2.4393,239.752,19.5836
3.72,474.818,28.0714,139.968,11.0066,-2.35537,-239.734,19.6012
3.74,474.943,28.1157,140.101,6.62966,-218.847,-10824.6,19.6092
3.76,475.028,28.146,140.191,4.50433,-106.267,5629,19.6126
3.78,475.113,28.1765,140.281,4.50732,0.149655,5320.83,19.6161
3.8,475.198,28.2068,140.371,4.50433,-0.149655,-14.9655,19.6195
3.82,475.282,28.2372,140.461,4.50601,0.0842059,11.6931,19.6229
3.84,475.368,28.2675,140.552,4.55275,2.33716,112.648,19.6264
3.86,475.453,28.2979,140.642,4.50601,-2.33716,-233.716,19.6298
3.88,475.538,28.3282,140.732,4.50433,-0.084206,112.647,19.6332
3.9,475.623,28.3586,140.823,4.50601,0.0842064,8.42062,19.6366
3.92,475.709,28.389,140.914,4.55442,2.42049,116.814,19.6401
3.94,475.794,28.4194,141.004,4.50601,-2.42049,-242.049,19.6435
