"time","x","y","position","velocity","acceleration","jerk","heading"
0,470.91,52.8009,0,0,0,0,-160.3
0.02,470.731,52.7368,0.190621,9.53105,476.552,23827.6,-160.302
0.04,470.552,52.6728,0.380946,9.51627,-0.738608,-23864.5,-160.303
0.06,470.373,52.6086,0.570626,9.48398,-1.6147,-43.8047,-160.305
0.08,470.194,52.5446,0.760952,9.51627,1.6147,161.47,-160.306
0.1,470.014,52.4804,0.951573,9.53105,0.738608,-43.8047,-160.308
0.12,469.651,52.3503,1.3379,19.3164,489.267,24426.4,-160.311
0.14,469.218,52.1955,1.797,22.9548,181.922,-15367.3,-160.316
0.16,468.713,52.0147,2.33382,26.8411,194.311,619.479,-160.326
0.18,468.148,51.8126,2.93431,30.0247,159.183,-1756.44,-160.34
0.2,467.49,51.5775,3.63274,34.9216,244.846,4283.18,-160.359
0.22,466.776,51.3227,4.391,37.9128,149.561,-4764.27,-160.384
0.24,465.992,51.044,5.22252,41.5757,183.141,1679.01,-160.418
0.26,465.138,50.7404,6.12875,45.3119,186.811,183.49,-160.458
0.28,464.21,50.4112,7.11392,49.2585,197.33,525.955,-160.513
0.3,463.209,50.0574,8.1759,53.099,192.024,-265.31,-160.579
0.32,462.133,49.6792,9.31596,57.0031,195.205,159.082,-160.662
0.34,460.996,49.281,10.5209,60.2454,162.118,-1654.38,-160.76
0.36,459.835,48.8768,11.7504,61.4764,61.5508,-5028.35,-160.874
0.38,458.67,48.474,12.983,61.63,7.6767,-2693.7,-160.999
0.4,457.5,48.0726,14.2199,61.8427,10.6376,148.043,-161.14
0.42,456.325,47.6732,15.461,62.059,10.8167,8.95504,-161.294
0.44,455.145,47.2756,16.7059,62.245,9.29623,-76.0212,-161.466
0.46,453.961,46.8805,17.9543,62.4184,8.67142,-31.2408,-161.652
0.48,452.771,46.4881,19.2075,62.6614,12.1486,173.857,-161.854
0.5,451.575,46.0987,20.4651,62.8791,10.8872,-63.0661,-162.074
0.52,450.373,45.7124,21.7272,63.1061,11.3507,23.173,-162.313
0.54,449.165,45.3299,22.9945,63.3626,12.8212,73.5242,-162.57
0.56,447.95,44.9517,24.267,63.6258,13.1618,17.0322,-162.846
0.58,446.729,44.5779,25.5445,63.876,12.511,-32.5423,-163.144
0.6,445.499,44.2089,26.8284,64.1944,15.9179,170.345,-163.462
0.62,444.262,43.8456,28.1171,64.4335,11.9567,-198.057,-163.802
0.64,443.016,43.488,29.4135,64.8203,19.3387,369.099,-164.168
0.66,441.764,43.137,30.7143,65.0409,11.0333,-415.272,-164.555
0.68,440.502,42.7932,32.0224,65.4036,18.1309,354.88,-164.967
0.7,439.233,42.4573,33.3351,65.6386,11.7529,-318.9,-165.398
0.72,437.952,42.1291,34.6567,66.0788,22.0106,512.888,-165.864
0.74,436.664,41.8103,35.9838,66.3557,13.8454,-408.262,-166.349
0.76,435.367,41.5013,37.3168,66.6479,14.606,38.0307,-166.858
0.78,434.061,41.2026,38.6568,66.9995,17.5832,148.859,-167.392
0.8,432.747,40.9153,40.002,67.2604,13.0447,-226.927,-167.944
0.82,431.425,40.6397,41.3526,67.5285,13.4053,18.0318,-168.522
0.84,430.095,40.3766,42.7084,67.7917,13.1582,-12.3526,-169.118
0.86,428.758,40.127,44.0685,68.0043,10.6286,-126.481,-169.728
0.88,427.415,39.8911,45.4317,68.1605,7.81183,-140.84,-170.351
0.9,426.068,39.6696,46.7973,68.2802,5.98433,-91.3749,-170.984
0.92,424.717,39.4629,48.1639,68.3286,2.42323,-178.055,-171.621
0.94,423.363,39.2713,49.531,68.3568,1.41002,-50.6604,-172.26
0.96,422.009,39.0948,50.8968,68.2885,-3.41674,-241.338,-172.893
0.98,420.654,38.9335,52.2613,68.2282,-3.01606,20.0342,-173.52
1,419.301,38.7873,53.6218,68.0218,-10.3185,-365.123,-174.133
1.02,417.953,38.6559,54.9762,67.7192,-15.1333,-240.74,-174.724
1.04,416.608,38.5386,56.3264,67.514,-10.2598,243.676,-175.296
1.06,415.27,38.435,57.6687,67.113,-20.0491,-489.468,-175.841
1.08,413.939,38.3443,59.003,66.7168,-19.8094,11.9852,-176.355
1.1,412.614,38.2658,60.3304,66.3668,-17.4989,115.526,-176.841
1.12,411.297,38.1985,61.649,65.9319,-21.7475,-212.428,-177.292
1.14,409.99,38.1416,62.9565,65.3737,-27.9098,-308.117,-177.702
1.16,408.692,38.094,64.2555,64.9513,-21.1202,339.48,-178.081
1.18,407.403,38.0549,65.5456,64.5067,-22.2259,-55.2816,-178.427
1.2,406.123,38.0233,66.8261,64.0238,-24.1483,-96.1227,-178.733
1.22,404.851,37.9984,68.0978,63.5851,-21.9357,110.63,-179.006
1.24,403.588,37.9793,69.3613,63.1746,-20.5234,70.6169,-179.248
1.26,402.335,37.9653,70.6146,62.6634,-25.5615,-251.904,-179.455
1.28,401.087,37.9556,71.8628,62.4104,-12.6505,645.545,-179.639
1.3,399.846,37.9495,73.1029,62.0035,-20.3433,-384.636,-179.792
1.32,398.613,37.9465,74.3361,61.6626,-17.0444,164.941,-179.919
1.34,397.385,37.9461,75.5641,61.4006,-13.0986,197.295,179.974
1.36,396.163,37.9476,76.7861,61.0996,-15.0513,-97.6363,179.89
1.38,394.945,37.9508,78.0042,60.9034,-9.80981,262.074,179.821
1.4,393.732,37.9552,79.217,60.6418,-13.0798,-163.5,179.772
1.42,392.523,37.9605,80.4265,60.4718,-8.50048,228.967,179.736
1.44,391.317,37.9664,81.6322,60.2887,-9.15488,-32.7203,179.714
1.46,390.114,37.9726,82.8354,60.1579,-6.5412,130.684,179.702
1.48,388.913,37.9789,84.0359,60.027,-6.54368,-0.123963,179.7
1.5,387.715,37.9852,85.2344,59.9223,-5.23599,65.3847,179.706
1.52,386.518,37.9912,86.431,59.8306,-4.58533,32.5327,179.719
1.54,385.323,37.9969,87.6263,59.7651,-3.27615,65.4592,179.737
1.56,384.129,38.0021,88.8203,59.6995,-3.27708,-0.0463525,179.76
1.58,382.936,38.0069,90.0135,59.6601,-1.96876,65.416,179.786
1.6,381.744,38.0111,91.2059,59.6208,-1.96912,-0.0182297,179.815
1.62,380.551,38.0147,92.398,59.6076,-0.659373,65.4873,179.845
1.64,379.359,38.0175,93.5902,59.6075,-0.00473957,32.7317,179.875
1.66,378.167,38.0198,94.7821,59.5943,-0.657748,-32.6504,179.906
1.68,376.975,38.0214,95.9745,59.6204,1.30615,98.1951,179.935
1.7,375.782,38.0225,97.1672,59.6335,0.653092,-32.653,179.963
1.72,374.589,38.023,98.3609,59.6858,2.61699,98.1951,179.987
1.74,373.395,38.023,99.5549,59.6989,0.654238,-98.1378,-179.99
1.76,372.199,38.0226,100.75,59.7644,3.27266,130.921,-179.972
1.78,371.003,38.0218,101.947,59.8298,3.27299,0.0166689,-179.959
1.8,369.805,38.0208,103.144,59.8691,1.96387,-65.4561,-179.949
1.82,368.606,38.0197,104.344,59.9869,5.8907,196.342,-179.948
1.84,367.405,38.0186,105.545,60.0524,3.27249,-130.911,-179.952
1.86,366.201,38.0177,106.748,60.1571,5.23557,98.1539,-179.964
1.88,364.996,38.0171,107.953,60.2618,5.23552,-0.0026068,-179.984
1.9,363.79,38.0169,109.16,60.3273,3.27216,-98.168,179.991
1.92,362.582,38.0174,110.367,60.3796,2.61821,-32.6973,179.962
1.94,361.375,38.0185,111.575,60.3665,-0.653498,-163.586,179.934
1.96,360.167,38.0202,112.782,60.3797,0.656248,65.4873,179.905
1.98,358.96,38.0225,113.99,60.3666,-0.651998,-65.4123,179.877
2,357.752,38.0255,115.197,60.3667,0.00324999,32.7624,179.849
2.02,356.545,38.0289,116.404,60.3668,0.00328122,0.00156184,179.821
2.04,355.338,38.033,117.612,60.3669,0.00546872,0.109375,179.793
2.06,354.13,38.0376,118.819,60.367,0.00453124,-0.0468743,179.765
2.08,352.923,38.043,120.026,60.3671,0.00721865,0.134371,179.737
2.1,351.716,38.0488,121.234,60.3803,0.66028,32.6531,179.708
2.12,350.508,38.0552,122.441,60.3674,-0.646874,-65.3577,179.68
2.14,349.301,38.0623,123.649,60.3675,0.00837487,32.7624,179.652
2.16,348.094,38.0698,124.856,60.3677,0.0075519,-0.0411483,179.624
2.18,346.886,38.0781,126.064,60.381,0.665946,32.9197,179.595
2.2,345.679,38.0869,127.271,60.3681,-0.643874,-65.491,179.567
2.22,344.471,38.0964,128.479,60.3814,0.665873,65.4873,179.538
2.24,343.263,38.1065,129.686,60.3817,0.0121246,-32.6874,179.509
2.26,342.056,38.117,130.894,60.3819,0.0106766,-0.072398,179.48
2.28,340.849,38.1283,132.101,60.3691,-0.638676,-32.4676,179.452
2.3,339.641,38.1402,133.309,60.3825,0.668873,65.3774,179.423
2.32,338.433,38.1526,134.517,60.3828,0.0151242,-32.6874,179.394
2.34,337.226,38.1657,135.724,60.37,-0.638624,-32.6874,179.366
2.36,336.019,38.1794,136.931,60.3704,0.016624,32.7624,179.338
2.38,334.811,38.1936,138.139,60.3707,0.0144261,-0.109893,179.31
2.4,333.605,38.2085,139.345,60.3211,-2.47874,-124.658,179.282
2.42,332.398,38.2239,140.552,60.3583,1.86099,216.986,179.255
2.44,331.191,38.2399,141.759,60.3456,-0.635,-124.799,179.229
2.46,329.984,38.2564,142.966,60.3459,0.0168214,32.5911,179.203
2.48,328.778,38.2734,144.173,60.3202,-1.28812,-65.2473,179.179
2.5,327.572,38.2909,145.379,60.3074,-0.640167,32.3979,179.156
2.52,326.366,38.3089,146.585,60.2947,-0.636115,0.202578,179.134
2.54,325.161,38.3274,147.79,60.2689,-1.29009,-32.6989,179.114
2.56,323.957,38.3462,148.994,60.1929,-3.7971,-125.35,179.096
2.58,322.753,38.3653,150.198,60.217,1.20645,250.177,179.08
2.6,321.549,38.3849,151.402,60.1912,-1.29292,-124.968,179.066
2.62,320.347,38.4046,152.605,60.1521,-1.95533,-33.1207,179.055
2.64,319.145,38.4246,153.807,60.113,-1.95525,0.00416373,179.047
2.66,317.943,38.4446,155.009,60.0869,-1.30484,32.5203,179.041
2.68,316.743,38.4647,156.209,59.9846,-5.11347,-190.431,179.039
2.7,315.544,38.4849,157.409,59.9954,0.540351,282.691,179.04
2.72,314.345,38.5049,158.608,59.956,-1.97187,-125.611,179.044
2.74,313.147,38.5249,159.806,59.9036,-2.61799,-32.3062,179.052
2.76,311.95,38.5446,161.003,59.8642,-1.97179,32.3104,179.063
2.78,310.754,38.5639,162.199,59.8115,-2.63433,-33.127,179.078
2.8,309.559,38.5831,163.394,59.7352,-3.81672,-59.1196,179.095
2.82,308.365,38.6017,164.589,59.7324,-0.138051,183.933,179.116
2.84,307.171,38.6199,165.783,59.7059,-1.32441,-59.318,179.139
2.86,305.977,38.6376,166.976,59.6794,-1.3278,-0.169256,179.164
2.88,304.784,38.6547,168.169,59.6396,-1.98537,-32.8786,179.192
2.9,303.592,38.6712,169.362,59.613,-1.33012,32.7624,179.222
2.92,302.4,38.6871,170.554,59.5995,-0.674872,32.7624,179.253
2.94,301.209,38.7023,171.745,59.586,-0.677319,-0.122393,179.285
2.96,300.018,38.7169,172.936,59.5594,-1.32775,-32.5213,179.319
2.98,298.827,38.7307,174.127,59.5221,-1.86917,-27.071,179.352
3,297.636,38.7438,175.318,59.5586,1.82557,184.737,179.386
3.02,296.445,38.7562,176.509,59.5582,-0.0187385,-92.2157,179.42
3.04,295.254,38.7679,177.7,59.5578,-0.0177178,0.0510335,179.454
3.06,294.063,38.7788,178.892,59.5706,0.635499,32.6609,179.487
3.08,292.871,38.7891,180.083,59.5703,-0.0133745,-32.4437,179.52
3.1,291.68,38.7988,181.275,59.5831,0.639843,32.6609,179.552
3.12,290.488,38.8078,182.467,59.5959,0.642749,0.145305,179.583
3.14,289.296,38.8161,183.659,59.5957,-0.0127601,-32.7754,179.614
3.16,288.104,38.8239,184.851,59.6217,1.29887,65.5816,179.643
3.18,286.911,38.8309,186.044,59.6345,0.643634,-32.7619,179.671
3.2,285.718,38.8375,187.237,59.6475,0.647363,0.186449,179.698
3.22,284.525,38.8436,188.43,59.6604,0.647884,0.0260434,179.724
3.24,283.331,38.849,189.624,59.6865,1.30175,32.6932,179.748
3.26,282.137,38.854,190.817,59.6864,-0.0054687,-65.3608,179.772
3.28,280.958,38.8585,191.997,58.9624,-36.1957,-1809.51,179.794
3.3,279.829,38.8624,193.125,56.4385,-126.196,-4500,179.814
3.32,278.772,38.8657,194.183,52.8777,-178.04,-2592.24,179.831
3.34,277.787,38.8684,195.168,49.2407,-181.849,-190.433,179.847
3.36,276.878,38.8707,196.077,45.4669,-188.692,-342.161,179.861
3.38,276.042,38.8726,196.913,41.793,-183.694,249.941,179.873
3.4,275.277,38.8743,197.677,38.2192,-178.692,250.092,179.883
3.42,274.576,38.8756,198.379,35.0823,-156.847,1092.22,179.892
3.44,273.948,38.8768,199.007,31.3953,-184.346,-1374.92,179.9
3.46,273.413,38.8777,199.542,26.7584,-231.846,-2375.04,179.907
3.48,272.913,38.8784,200.042,24.9715,-89.3462,7125.02,179.913
3.5,272.548,38.879,200.406,18.2477,-336.191,-12342.2,179.917
3.52,272.235,38.8794,200.72,15.6607,-129.346,10342.2,179.92
3.54,271.921,38.8799,201.034,15.6977,1.84586,6559.6,179.924
3.56,271.67,38.8802,201.285,12.5607,-156.846,-7934.6,179.927
3.58,271.47,38.8804,201.484,9.97383,-129.346,1375.02,179.929
3.6,271.271,38.8807,201.684,9.97383,0.000312507,6467.3,179.931
3.62,271.071,38.8809,201.883,9.97383,-0.000312528,-0.0312517,179.933
3.64,270.872,38.8812,202.083,9.97383,0.000312556,0.0312542,179.935
3.66,270.673,38.8814,202.282,9.97383,-0.00031257,-0.0312563,179.937
3.68,270.473,38.8816,202.482,9.97383,-4.4837e-09,0.0156283,179.939
3.7,270.274,38.8818,202.681,9.97383,-3.05835e-09,7.12674e-08,179.941
3.72,270.074,38.882,202.881,9.97383,-1.34897e-09,8.54694e-08,179.943
3.74,269.874,38.8822,203.08,9.98692,0.654498,32.7249,179.944
3.76,269.675,38.8824,203.28,9.97383,-0.654498,-65.4498,179.946
3.78,269.475,38.8826,203.479,9.97383,2.62954e-09,32.7249,179.948
3.8,269.276,38.8828,203.679,9.97383,4.20801e-09,7.89235e-08,179.95
3.82,269.076,38.8829,203.879,9.98691,0.654311,32.7156,179.951
3.84,268.877,38.8831,204.078,9.97383,-0.654311,-65.4311,179.953
3.86,268.677,38.8832,204.278,9.97382,-0.000187457,32.7062,179.955
3.88,268.477,38.8834,204.477,9.98692,0.654686,32.7437,179.956
3.9,268.278,38.8836,204.677,9.97383,-0.654498,-65.4592,179.958
3.92,268.079,38.8837,204.876,9.97382,-0.00018751,32.7155,179.96
3.94,267.879,38.8838,205.076,9.98691,0.654498,32.7343,179.961
3.96,267.679,38.884,205.275,9.97383,-0.654311,-65.4405,179.963
3.98,267.48,38.8841,205.475,9.98691,0.654311,65.4311,179.964
4,267.28,38.8842,205.675,9.97382,-0.654498,-65.4405,179.966
4.02,267.08,38.8843,205.874,9.98691,0.654498,65.4498,179.967
4.04,266.881,38.8844,206.074,9.98691,-9.90852e-10,-32.7249,179.968
4.06,266.681,38.8845,206.274,9.97382,-0.654498,-32.7249,179.97
4.08,266.481,38.8846,206.473,9.98691,0.654498,65.4498,179.971
4.1,266.282,38.8847,206.673,9.97382,-0.654498,-65.4498,179.973
4.12,266.082,38.8848,206.873,9.98691,0.654498,65.4498,179.974
4.14,265.882,38.8849,207.072,9.98691,3.3431e-10,-32.7249,179.975
4.16,265.683,38.885,207.272,9.98691,8.58602e-10,2.62146e-08,179.976
4.18,265.483,38.8851,207.472,9.97382,-0.654498,-32.7249,179.978
4.2,265.284,38.8852,207.671,9.98691,0.654498,65.4498,179.979
4.22,265.084,38.8852,207.871,9.98691,-6.24632e-05,-32.728,179.98
4.24,264.884,38.8853,208.071,9.98691,6.24664e-05,0.00624648,179.981
4.26,264.684,38.8854,208.27,9.98691,2.04139e-09,-0.00312322,179.982
4.28,264.485,38.8854,208.47,9.98691,-6.24797e-05,-0.00312409,179.983
4.3,264.285,38.8855,208.67,9.98691,6.24842e-05,0.00624819,179.984
4.32,264.085,38.8855,208.87,9.98691,-6.24908e-05,-0.00624875,179.985
4.34,263.885,38.8856,209.069,9.98691,6.2496e-05,0.00624934,179.986
4.36,263.686,38.8856,209.269,9.98691,-6.25017e-05,-0.00624989,179.987
4.38,263.486,38.8857,209.469,9.98691,6.25079e-05,0.00625048,179.988
4.4,263.286,38.8857,209.669,9.98691,-6.2513e-05,-0.00625104,179.989
4.42,263.086,38.8858,209.869,10,0.654561,32.7312,179.989
4.44,262.886,38.8858,210.068,9.98691,-0.654561,-65.4561,179.99
4.46,262.687,38.8858,210.268,9.98691,-1.96998e-09,32.728,179.991
4.48,262.487,38.8858,210.468,9.98691,-1.72991e-09,1.20037e-08,179.992
4.5,262.287,38.8859,210.668,10,0.654561,32.728,179.992
4.52,262.087,38.8859,210.868,9.98691,-0.654561,-65.4561,179.993
4.54,261.887,38.8859,211.067,9.98691,-1.44507e-09,32.728,179.994
4.56,261.687,38.8859,211.267,10,0.654498,32.7249,179.994
4.58,261.488,38.886,211.467,9.98691,-0.654436,-65.4467,179.995
4.6,261.288,38.886,211.667,10,0.654436,65.4436,179.995
4.62,261.088,38.886,211.867,9.98691,-0.654498,-65.4467,179.996
4.64,260.888,38.886,212.067,10,0.654498,65.4498,179.996
4.66,260.688,38.886,212.267,9.98691,-0.654498,-65.4498,179.997
4.68,260.488,38.886,212.467,10,0.654498,65.4498,179.997
4.7,260.288,38.886,212.666,9.98691,-0.654498,-65.4498,179.998
4.72,260.088,38.886,212.866,10,0.654498,65.4498,179.998
4.74,259.888,38.886,213.066,10,-2.22045e-11,-32.7249,179.998
4.76,259.743,38.886,213.212,7.28691,-135.654,-6782.72,179.999
4.78,259.643,38.886,213.312,5,-114.346,1065.45,179.999
4.8,259.543,38.886,213.412,5,-1.31006e-10,5717.28,179.999
4.82,259.443,38.886,213.512,5,1.31006e-10,1.31006e-08,179.999
4.84,259.343,38.886,213.612,5,-1.31006e-10,-1.31006e-08,179.999
4.86,259.243,38.886,213.712,5,1.31006e-10,1.31006e-08,179.999
4.88,259.143,38.886,213.812,5,1.11022e-11,-5.9952e-09,179.999
4.9,259.043,38.886,213.912,5,-1.53211e-10,-8.21565e-09,179.999
4.92,258.943,38.886,214.012,5,1.53211e-10,1.53211e-08,179.999
4.94,258.843,38.886,214.112,5,-1.53211e-10,-1.53211e-08,179.999
