"time","x","y","position","velocity","acceleration","jerk","heading"
0,465.854,66.923,0,0,180,0,-160.3
0.02,465.675,66.859,0.189737,3.6,180,0,-160.302
0.04,465.496,66.7951,0.379473,7.2,180,0,-160.303
0.06,465.318,66.7311,0.56921,10.8,180,0,-160.305
0.08,465.139,66.6672,0.758947,14.4,180,0,-160.306
0.1,464.96,66.6032,0.948683,18,180,0,-160.308
0.12,464.597,66.4733,1.33418,21.6,180,0,-160.311
0.14,464.166,66.319,1.79224,25.2,180,0,-160.316
0.16,463.663,66.1391,2.3262,28.8,180,0,-160.326
0.18,463.101,65.9382,2.92317,32.4,180,0,-160.34
0.2,462.448,65.7048,3.61697,36,180,0,-160.359
0.22,461.74,65.4522,4.36898,39.6,180,0,-160.384
0.24,460.965,65.1764,5.19104,43.2,180,0,-160.418
0.26,460.121,64.8763,6.08706,46.8,180,0,-160.458
0.28,459.206,64.552,7.05782,50.4,180,0,-160.513
0.3,458.221,64.2039,8.10271,54,180,0,-160.579
0.32,457.166,63.8329,9.22053,57.6,140.305,0,-160.662
0.34,456.053,63.4432,10.4,60,0,0,-160.76
0.36,454.92,63.0488,11.6,60,0,0,-160.874
0.38,453.786,62.6567,12.8,60,0,0,-160.999
0.4,452.651,62.2673,14,60,0,0,-161.14
0.42,451.514,61.8809,15.2,60,0,0,-161.294
0.44,450.377,61.4976,16.4,60,0,0,-161.466
0.46,449.239,61.1179,17.6,60,0,0,-161.652
0.48,448.099,60.7421,18.8,60,0,0,-161.854
0.5,446.958,60.3705,20,60,0,0,-162.074
0.52,445.816,60.0034,21.2,60,0,0,-162.313
0.54,444.672,59.6412,22.4,60,0,0,-162.57
0.56,443.526,59.2844,23.6,60,0,0,-162.846
0.58,442.379,58.9334,24.8,60,0,0,-163.144
0.6,441.229,58.5884,26,60,0,0,-163.462
0.62,440.078,58.2502,27.2,60,0,0,-163.802
0.64,438.924,57.919,28.4,60,0,0,-164.168
0.66,437.769,57.5953,29.6,60,0,0,-164.555
0.68,436.611,57.2798,30.8,60,0,0,-164.967
0.7,435.451,56.9728,32,60,0,0,-165.398
0.72,434.289,56.6749,33.2,60,0,0,-165.864
0.74,433.124,56.3866,34.4,60,0,0,-166.349
0.76,431.957,56.1084,35.6,60,0,0,-166.858
0.78,430.787,55.8409,36.8,60,0,0,-167.392
0.8,429.614,55.5845,38,60,0,0,-167.944
0.82,428.44,55.3397,39.2,60,0,0,-168.522
0.84,427.263,55.1069,40.4,60,0,0,-169.118
0.86,426.083,54.8866,41.6,60,0,0,-169.728
0.88,424.901,54.6789,42.8,60,0,0,-170.351
0.9,423.717,54.4843,44,60,0,0,-170.984
0.92,422.531,54.3028,45.2,60,0,0,-171.621
0.94,421.343,54.1346,46.4,60,0,0,-172.26
0.96,420.153,53.9796,47.6,60,0,0,-172.893
0.98,418.961,53.8377,48.8,60,0,0,-173.52
1,417.768,53.7087,50,60,0,0,-174.133
1.02,416.574,53.5923,51.2,60,0,0,-174.724
1.04,415.378,53.4881,52.4,60,0,0,-175.296
1.06,414.182,53.3955,53.6,60,0,0,-175.841
1.08,412.985,53.314,54.8,60,0,0,-176.355
1.1,411.787,53.243,56,60,0,0,-176.841
1.12,410.588,53.1817,57.2,60,0,0,-177.292
1.14,409.389,53.1295,58.4,60,0,0,-177.702
1.16,408.19,53.0856,59.6,60,0,0,-178.081
1.18,406.991,53.0492,60.8,60,0,0,-178.427
1.2,405.791,53.0196,62,60,0,0,-178.733
1.22,404.591,52.9961,63.2,60,0,0,-179.006
1.24,403.391,52.978,64.4,60,0,0,-179.248
1.26,402.192,52.9646,65.6,60,0,0,-179.455
1.28,400.992,52.9553,66.8,60,0,0,-179.639
1.3,399.792,52.9494,68,60,0,0,-179.792
1.32,398.592,52.9465,69.2,60,0,0,-179.919
1.34,397.392,52.9461,70.4,60,0,0,179.974
1.36,396.192,52.9476,71.6,60,0,0,179.89
1.38,394.992,52.9507,72.8,60,0,0,179.821
1.4,393.792,52.9551,74,60,0,0,179.772
1.42,392.592,52.9603,75.2,60,0,0,179.736
1.44,391.392,52.9662,76.4,60,0,0,179.714
1.46,390.192,52.9724,77.6,60,0,0,179.702
1.48,388.992,52.9787,78.8,60,0,0,179.7
1.5,387.792,52.985,80,60,0,0,179.706
1.52,386.592,52.991,81.2,60,0,0,179.719
1.54,385.392,52.9967,82.4,60,0,0,179.737
1.56,384.192,53.002,83.6,60,0,0,179.76
1.58,382.992,53.0068,84.8,60,0,0,179.786
1.6,381.792,53.011,86,60,0,0,179.815
1.62,380.592,53.0146,87.2,60,0,0,179.845
1.64,379.392,53.0175,88.4,60,0,0,179.875
1.66,378.192,53.0198,89.6,60,0,0,179.906
1.68,376.992,53.0214,90.8,60,0,0,179.935
1.7,375.792,53.0225,92,60,0,0,179.963
1.72,374.592,53.023,93.2,60,0,0,179.987
1.74,373.392,53.023,94.4,60,0,0,-179.99
1.76,372.192,53.0226,95.6,60,0,0,-179.972
1.78,370.992,53.0218,96.8,60,0,0,-179.959
1.8,369.792,53.0208,98,60,0,0,-179.949
1.82,368.592,53.0197,99.2,60,0,0,-179.948
1.84,367.392,53.0186,100.4,60,0,0,-179.952
1.86,366.192,53.0177,101.6,60,0,0,-179.964
1.88,364.992,53.0171,102.8,60,0,0,-179.984
1.9,363.792,53.0169,104,60,0,0,179.991
1.92,362.592,53.0174,105.2,60,0,0,179.962
1.94,361.392,53.0185,106.4,60,0,0,179.934
1.96,360.192,53.0202,107.6,60,0,0,179.905
1.98,358.992,53.0225,108.8,60,0,0,179.877
2,357.792,53.0254,110,60,0,0,179.849
2.02,356.592,53.0288,111.2,60,0,0,179.821
2.04,355.392,53.0329,112.4,60,0,0,179.793
2.06,354.192,53.0375,113.6,60,0,0,179.765
2.08,352.992,53.0428,114.8,60,0,0,179.737
2.1,351.792,53.0486,116,60,0,0,179.708
2.12,350.592,53.055,117.2,60,0,0,179.68
2.14,349.392,53.062,118.4,60,0,0,179.652
2.16,348.192,53.0695,119.6,60,0,0,179.624
2.18,346.992,53.0777,120.8,60,0,0,179.595
2.2,345.792,53.0865,122,60,0,0,179.567
2.22,344.592,53.0959,123.2,60,0,0,179.538
2.24,343.392,53.1059,124.4,60,0,0,179.509
2.26,342.192,53.1164,125.6,60,0,0,179.48
2.28,340.992,53.1276,126.8,60,0,0,179.452
2.3,339.792,53.1394,128,60,0,0,179.423
2.32,338.592,53.1518,129.2,60,0,0,179.394
2.34,337.392,53.1648,130.4,60,0,0,179.366
2.36,336.192,53.1784,131.6,60,0,0,179.338
2.38,334.992,53.1925,132.8,60,0,0,179.31
2.4,333.793,53.2073,134,60,0,0,179.282
2.42,332.593,53.2226,135.2,60,0,0,179.255
2.44,331.393,53.2385,136.4,60,0,0,179.229
2.46,330.193,53.2549,137.6,60,0,0,179.203
2.48,328.993,53.2719,138.8,60,0,0,179.179
2.5,327.793,53.2893,140,60,0,0,179.156
2.52,326.593,53.3072,141.2,60,0,0,179.134
2.54,325.393,53.3256,142.4,60,0,0,179.114
2.56,324.194,53.3443,143.6,60,0,0,179.096
2.58,322.994,53.3634,144.8,60,0,0,179.08
2.6,321.794,53.3829,146,60,0,0,179.066
2.62,320.594,53.4026,147.2,60,0,0,179.055
2.64,319.394,53.4225,148.4,60,0,0,179.047
2.66,318.194,53.4425,149.6,60,0,0,179.041
2.68,316.995,53.4626,150.8,60,0,0,179.039
2.7,315.795,53.4828,152,60,0,0,179.04
2.72,314.595,53.5028,153.2,60,0,0,179.044
2.74,313.395,53.5228,154.4,60,0,0,179.052
2.76,312.195,53.5426,155.6,60,0,0,179.063
2.78,310.995,53.562,156.8,60,0,0,179.078
2.8,309.796,53.5812,158,60,0,0,179.095
2.82,308.596,53.5999,159.2,60,0,0,179.116
2.84,307.396,53.6182,160.4,60,0,0,179.139
2.86,306.196,53.636,161.6,60,0,0,179.164
2.88,304.996,53.6532,162.8,60,0,0,179.192
2.9,303.796,53.6698,164,60,0,0,179.222
2.92,302.596,53.6858,165.2,60,0,0,179.253
2.94,301.396,53.7011,166.4,60,0,0,179.285
2.96,300.196,53.7158,167.6,60,0,0,179.319
2.98,298.997,53.7297,168.8,60,0,0,179.352
3,297.797,53.7429,170,60,0,0,179.386
3.02,296.597,53.7554,171.2,60,0,0,179.42
3.04,295.397,53.7672,172.4,60,0,0,179.454
3.06,294.197,53.7782,173.6,60,0,0,179.487
3.08,292.997,53.7886,174.8,60,0,0,179.52
3.1,291.797,53.7983,176,60,0,0,179.552
3.12,290.597,53.8074,177.2,60,0,0,179.583
3.14,289.397,53.8158,178.4,60,0,0,179.614
3.16,288.197,53.8236,179.6,60,0,0,179.643
3.18,286.997,53.8307,180.8,60,0,0,179.671
3.2,285.797,53.8373,182,60,0,0,179.698
3.22,284.597,53.8434,183.2,60,0,0,179.724
3.24,283.397,53.8489,184.4,60,0,0,179.748
3.26,282.197,53.8539,185.6,60,-78,0,179.772
3.28,281.012,53.8584,186.785,58.2667,-169.264,0,179.794
3.3,279.878,53.8623,187.919,54.8489,-180,0,179.814
3.32,278.816,53.8656,188.981,51.2489,-180,0,179.831
3.34,277.827,53.8683,189.97,47.6489,-180,0,179.847
3.36,276.914,53.8707,190.884,44.0489,-180,0,179.861
3.38,276.075,53.8726,191.722,40.4489,-180,0,179.873
3.4,275.308,53.8743,192.489,36.8489,-180,0,179.883
3.42,274.604,53.8756,193.193,33.2489,-180,0,179.892
3.44,273.974,53.8768,193.823,29.6489,-180,0,179.9
3.46,273.437,53.8777,194.36,26.0489,-180,0,179.907
3.48,272.936,53.8784,194.861,22.4489,-180,0,179.913
3.5,272.57,53.879,195.227,18.8489,-139.139,0,179.917
3.52,272.256,53.8794,195.541,15.2489,-82.5334,0,179.92
3.54,271.941,53.8799,195.856,11.6489,-25.9277,0,179.924
3.56,271.689,53.8802,196.108,10,0,0,179.927
3.58,271.489,53.8804,196.308,10,0,0,179.929
3.6,271.289,53.8807,196.508,10,0,0,179.931
3.62,271.089,53.8809,196.708,10,0,0,179.933
3.64,270.889,53.8812,196.908,10,0,0,179.935
3.66,270.689,53.8814,197.108,10,0,0,179.937
3.68,270.489,53.8816,197.308,10,0,0,179.939
3.7,270.289,53.8818,197.508,10,0,0,179.941
3.72,270.089,53.882,197.708,10,0,0,179.943
3.74,269.889,53.8822,197.908,10,0,0,179.944
3.76,269.689,53.8824,198.108,10,0,0,179.946
3.78,269.489,53.8826,198.308,10,0,0,179.948
3.8,269.289,53.8828,198.508,10,0,0,179.95
3.82,269.089,53.8829,198.708,10,0,0,179.951
3.84,268.889,53.8831,198.908,10,0,0,179.953
3.86,268.689,53.8832,199.108,10,0,0,179.955
3.88,268.489,53.8834,199.308,10,0,0,179.956
3.9,268.289,53.8836,199.508,10,0,0,179.958
3.92,268.089,53.8837,199.708,10,0,0,179.96
3.94,267.889,53.8838,199.908,10,0,0,179.961
3.96,267.689,53.884,200.108,10,0,0,179.963
3.98,267.489,53.8841,200.308,10,0,0,179.964
4,267.289,53.8842,200.508,10,0,0,179.966
4.02,267.089,53.8843,200.708,10,0,0,179.967
4.04,266.889,53.8844,200.908,10,0,0,179.968
4.06,266.689,53.8845,201.108,10,0,0,179.97
4.08,266.489,53.8846,201.308,10,0,0,179.971
4.1,266.289,53.8847,201.508,10,0,0,179.973
4.12,266.089,53.8848,201.708,10,0,0,179.974
4.14,265.889,53.8849,201.908,10,0,0,179.975
4.16,265.689,53.885,202.108,10,0,0,179.976
4.18,265.489,53.8851,202.308,10,0,0,179.978
4.2,265.289,53.8852,202.508,10,0,0,179.979
4.22,265.089,53.8852,202.708,10,0,0,179.98
4.24,264.889,53.8853,202.908,10,0,0,179.981
4.26,264.689,53.8854,203.108,10,0,0,179.982
4.28,264.489,53.8854,203.308,10,0,0,179.983
4.3,264.289,53.8855,203.508,10,0,0,179.984
4.32,264.089,53.8855,203.708,10,0,0,179.985
4.34,263.889,53.8856,203.908,10,0,0,179.986
4.36,263.689,53.8856,204.108,10,0,0,179.987
4.38,263.489,53.8857,204.308,10,0,0,179.988
4.4,263.289,53.8857,204.508,10,0,0,179.989
4.42,263.089,53.8858,204.708,10,0,0,179.989
4.44,262.889,53.8858,204.908,10,0,0,179.99
4.46,262.689,53.8858,205.108,10,0,0,179.991
4.48,262.489,53.8858,205.308,10,0,0,179.992
4.5,262.289,53.8859,205.508,10,0,0,179.992
4.52,262.089,53.8859,205.708,10,0,0,179.993
4.54,261.889,53.8859,205.908,10,0,0,179.994
4.56,261.689,53.8859,206.108,10,0,0,179.994
4.58,261.489,53.886,206.308,10,0,0,179.995
4.6,261.289,53.886,206.508,10,0,0,179.995
4.62,261.089,53.886,206.708,10,0,0,179.996
4.64,260.889,53.886,206.908,10,0,0,179.996
4.66,260.689,53.886,207.108,10,-5.41959,0,179.997
4.68,260.489,53.886,207.308,10,-15.4196,0,179.997
4.7,260.289,53.886,207.508,10,-25.4196,0,179.998
4.72,260.089,53.886,207.708,10,-35.4196,0,179.998
4.74,259.889,53.886,207.908,10,-45.4196,0,179.998
4.76,259.743,53.886,208.054,9.45804,-50,0,179.999
4.78,259.643,53.886,208.154,8.45804,-50,0,179.999
4.8,259.543,53.886,208.254,7.45804,-50,0,179.999
4.82,259.443,53.886,208.354,6.45804,-50,0,179.999
4.84,259.343,53.886,208.454,5.45804,-50,0,179.999
4.86,259.243,53.886,208.554,4.45804,-50,0,179.999
4.88,259.143,53.886,208.654,3.45804,-50,0,179.999
4.9,259.043,53.886,208.754,2.45804,-50,0,179.999
4.92,258.943,53.886,208.854,1.45804,-50,0,179.999
4.94,258.843,53.886,208.954,0.458041,-50,0,179.999
