"time","x","y","position","velocity","acceleration","jerk","heading"
0,20,85,0,0,0,0,0
0.02,20.1729,85,0.172851,8.64256,432.128,21606.4,0.00133206
0.04,20.3457,85,0.345703,8.64256,-6.54452e-06,-21606.4,0.00266413
0.06,20.5186,85,0.518554,8.64256,6.54594e-06,0.000654523,0.00399619
0.08,20.6914,85,0.691405,8.64256,1.40608e-09,-0.000327227,0.00532825
0.1,20.8643,85,0.864256,8.64256,-6.54308e-06,-0.000327224,0.00666032
0.12,21.0924,85,1.09241,11.4076,138.252,6912.59,0.00875357
0.14,21.5094,85.0001,1.50938,20.8486,472.049,16689.8,0.0134464
0.16,21.9263,85.0002,1.92625,20.8436,-0.249915,-23614.9,0.0181391
0.18,22.4474,85.0004,2.44743,26.0587,260.758,13050.4,0.0293129
0.2,22.9891,85.0007,2.98907,27.082,51.1621,-10479.8,0.0417671
0.22,23.6304,85.0012,3.63043,32.068,249.3,9906.92,0.0610202
0.24,24.3104,85.002,4.31039,33.9981,96.5043,-7639.81,0.0840875
0.26,25.0436,85.0033,5.04358,36.6596,133.075,1828.51,0.112773
0.28,25.8449,85.005,5.84489,40.0658,170.311,1861.81,0.151682
0.3,26.7056,85.0076,6.70558,43.0343,148.428,-1094.15,0.19682
0.32,27.6205,85.0112,7.62053,45.7474,135.655,-638.64,0.25472
0.34,28.5921,85.016,8.59211,48.5791,141.582,296.374,0.322063
0.36,29.6197,85.0224,9.61972,51.3807,140.079,-75.1992,0.40307
0.38,30.703,85.0308,10.703,54.1659,139.262,-40.8306,0.497476
0.4,31.8411,85.0418,11.8412,56.9071,137.059,-110.125,0.606766
0.42,33.0404,85.0558,13.0406,59.9717,153.231,808.592,0.736063
0.44,34.2929,85.0733,14.2932,62.6293,132.878,-1017.64,0.882898
0.46,35.5967,85.0953,15.5972,65.1998,128.524,-217.701,1.04904
0.48,36.9572,85.1224,16.958,68.0388,141.949,671.244,1.24119
0.5,38.3703,85.1556,18.3715,70.6761,131.868,-504.055,1.45541
0.52,39.8364,85.1957,19.8382,73.3328,132.832,48.1779,1.69727
0.54,41.3473,85.244,21.3498,75.5819,112.457,-1018.76,1.96644
0.56,42.8694,85.3,22.8729,76.157,28.7571,-4184.97,2.25804
0.58,44.3863,85.3638,24.3912,75.9138,-12.1597,-2045.84,2.56988
0.6,45.8974,85.4358,25.904,75.6395,-13.7184,-77.9365,2.90306
0.62,47.4033,85.5167,27.4121,75.4048,-11.7358,99.1305,3.25412
0.64,48.9027,85.6068,28.9141,75.1028,-15.0957,-167.995,3.62817
0.66,50.396,85.7065,30.4108,74.8309,-13.5963,74.9677,4.02327
0.68,51.8838,85.8165,31.9027,74.5959,-11.7489,92.3713,4.43592
0.7,53.3642,85.9369,33.3879,74.2628,-16.6568,-245.392,4.87408
0.72,54.8384,86.0684,34.868,74.0025,-13.0172,181.98,5.33238
0.74,56.3063,86.2115,36.3429,73.7451,-12.8686,7.42937,5.81043
0.76,57.7662,86.3664,37.811,73.4049,-17.0085,-206.997,6.31399
0.78,59.2195,86.5338,39.2739,73.1439,-13.0492,197.965,6.8378
0.8,60.6651,86.7141,40.7307,72.84,-15.1963,-107.352,7.38478
0.82,62.1025,86.9075,42.181,72.5156,-16.2205,-51.2127,7.95653
0.84,63.5321,87.1147,43.6256,72.2299,-14.2868,96.6861,8.54992
0.86,64.9532,87.3361,45.0637,71.9079,-16.0964,-90.4817,9.16838
0.88,66.3651,87.5719,46.4953,71.5767,-16.5625,-23.3027,9.81174
0.9,67.7681,87.8228,47.9205,71.2614,-15.7641,39.9171,10.4793
0.92,69.1611,88.0891,49.3388,70.9133,-17.4042,-82.0047,11.1733
0.94,70.5446,88.3713,50.7507,70.5955,-15.8891,75.7589,11.8917
0.96,71.9173,88.6695,52.1555,70.2404,-17.7576,-93.4289,12.6372
0.98,73.2792,88.9844,53.5533,69.8903,-17.5048,12.6406,13.4096
1,74.63,89.3162,54.9442,69.5463,-17.2006,15.2103,14.2082
1.02,75.9685,89.6652,56.3274,69.1613,-19.2509,-102.513,15.0362
1.04,77.2954,90.0321,57.7041,68.8352,-16.3001,147.538,15.889
1.06,78.6087,90.4168,59.0727,68.4259,-20.467,-208.342,16.7733
1.08,79.9095,90.82,60.4345,68.0928,-16.6566,190.518,17.6827
1.1,81.1959,91.2416,61.7882,67.6851,-20.3819,-186.266,18.6234
1.12,82.4682,91.6822,63.1347,67.3225,-18.1323,112.48,19.5919
1.14,83.726,92.1421,64.4739,66.9608,-18.0829,2.47144,20.5881
1.16,84.9677,92.6211,65.8048,66.5473,-20.6752,-129.616,21.6156
1.18,86.1946,93.1202,67.1293,66.2221,-16.2624,220.638,22.6683
1.2,87.4041,93.6386,68.4452,65.7967,-21.2697,-250.366,23.7531
1.22,88.5974,94.1775,69.7546,65.4686,-16.4056,243.205,24.8632
1.24,89.7731,94.7365,71.0564,65.0907,-18.8949,-124.465,26.0022
1.26,90.9312,95.3159,72.3513,64.7458,-17.2447,82.5142,27.1672
1.28,92.071,95.9156,73.6393,64.4001,-17.2825,-1.89063,28.3589
1.3,93.1926,96.5363,74.9211,64.0909,-15.4625,90.9998,29.575
1.32,94.2946,97.1774,76.1961,63.7502,-17.0334,-78.5436,30.8165
1.34,95.3777,97.8397,77.4656,63.4748,-13.7728,163.028,32.0789
1.36,96.4406,98.5225,78.7289,63.1655,-15.4643,-84.5742,33.3643
1.38,97.4838,99.2266,79.9875,62.928,-11.8748,179.472,34.6677
1.4,98.5064,99.9516,81.241,62.6775,-12.5233,-32.4228,35.9899
1.42,99.5094,100.698,82.4911,62.5039,-8.67883,192.223,37.3278
1.44,100.492,101.465,83.7376,62.3226,-9.06802,-19.4592,38.6787
1.46,101.453,102.253,84.9806,62.1515,-8.55343,25.7293,40.042
1.48,102.393,103.063,86.2212,62.0301,-6.07277,124.033,41.413
1.5,103.312,103.894,87.4601,61.9427,-4.36976,85.1501,42.7921
1.52,104.21,104.746,88.6982,61.9068,-1.79428,128.774,44.1745
1.54,105.087,105.619,89.9358,61.8801,-1.33607,22.9107,45.5587
1.56,105.944,106.513,91.1741,61.9164,1.81586,157.596,46.9418
1.58,106.779,107.428,92.4128,61.9355,0.954178,-43.0839,48.3212
1.6,107.592,108.364,93.653,62.0087,3.66373,135.477,49.6944
1.62,108.385,109.322,94.8961,62.1548,7.30243,181.935,51.0592
1.64,109.156,110.3,96.1411,62.2475,4.63645,-133.299,52.4129
1.66,109.906,111.298,97.3899,62.4407,9.66031,251.193,53.7536
1.68,110.635,112.318,98.6437,62.6895,12.4392,138.944,55.0784
1.7,111.343,113.357,99.9011,62.872,9.12303,-165.808,56.3863
1.72,112.031,114.416,101.164,63.1382,13.3138,209.539,57.674
1.74,112.696,115.495,102.432,63.3953,12.8538,-22.9999,58.9433
1.76,113.342,116.594,103.706,63.7195,16.2107,167.844,60.1863
1.78,113.966,117.711,104.986,63.9796,13.0057,-160.25,61.4102
1.8,114.57,118.848,106.273,64.3811,20.072,353.316,62.6041
1.82,115.153,120.002,107.566,64.6462,13.2566,-340.77,63.7759
1.84,115.716,121.175,108.867,65.0337,19.3734,305.841,64.9188
1.86,116.259,122.365,110.175,65.3944,18.0339,-66.9796,66.0356
1.88,116.782,123.571,111.49,65.7482,17.6928,-17.0519,67.1238
1.9,117.284,124.794,112.812,66.1167,18.423,36.5066,68.1845
1.92,117.767,126.034,114.143,66.5236,20.3475,96.225,69.2148
1.94,118.23,127.288,115.48,66.8461,16.1227,-211.236,70.2196
1.96,118.675,128.558,116.825,67.2797,21.6818,277.953,71.1913
1.98,119.1,129.842,118.177,67.6006,16.0426,-281.962,72.139
2,119.507,131.139,119.537,67.9999,19.9683,196.285,73.0535
2.02,119.895,132.45,120.904,68.3557,17.7881,-109.009,73.9422
2.04,120.266,133.774,122.279,68.7431,19.3704,79.1151,74.8027
2.06,120.618,135.111,123.662,69.1225,18.9682,-20.109,75.6333
2.08,120.953,136.459,125.051,69.4478,16.2647,-135.177,76.4404
2.1,121.271,137.819,126.448,69.8584,20.5325,213.392,77.215
2.12,121.573,139.19,127.851,70.1689,15.5274,-250.256,77.9676
2.14,121.857,140.572,129.262,70.5319,18.1458,130.919,78.6907
2.16,122.128,141.962,130.678,70.8334,15.0793,-153.323,79.3885
2.18,122.381,143.363,132.102,71.1985,18.2505,158.56,80.0631
2.2,122.62,144.774,133.533,71.5226,16.2081,-102.121,80.7086
2.22,122.843,146.193,134.97,71.8445,16.0951,-5.65069,81.3335
2.24,123.053,147.621,136.413,72.1724,16.3937,14.9333,81.9317
2.26,123.25,149.057,137.863,72.4731,15.0327,-68.0502,82.5059
2.28,123.433,150.5,139.317,72.7229,12.4938,-126.949,83.0606
2.3,123.602,151.953,140.78,73.1497,21.3393,442.277,83.5867
2.32,123.76,153.412,142.247,73.3324,9.13673,-610.128,84.0933
2.34,123.905,154.878,143.72,73.6817,17.4641,416.368,84.5791
2.36,124.038,156.351,145.2,73.9586,13.8449,-180.958,85.0387
2.38,124.162,157.83,146.683,74.1951,11.8248,-101.005,85.4804
2.4,124.273,159.317,148.174,74.5366,17.0754,262.529,85.8997
2.42,124.374,160.809,149.67,74.7884,12.5888,-224.334,86.2965
2.44,124.466,162.307,151.171,75.0522,13.1897,30.0476,86.6745
2.46,124.549,163.812,152.678,75.3545,15.1145,96.2381,87.031
2.48,124.623,165.322,154.19,75.5956,12.055,-152.976,87.3671
2.5,124.688,166.837,155.707,75.8367,12.0561,0.0580063,87.6832
2.52,124.745,168.358,157.228,76.083,12.3134,12.8642,87.9791
2.54,124.795,169.867,158.738,75.481,-30.0994,-2120.64,88.2512
2.56,124.836,171.326,160.197,72.972,-125.45,-4767.53,88.4963
2.58,124.871,172.733,161.606,70.412,-128.002,-127.601,88.7148
2.6,124.899,174.087,162.96,67.7056,-135.316,-365.722,88.9065
2.62,124.922,175.387,164.259,64.9763,-136.469,-57.6057,89.0772
2.64,124.94,176.634,165.507,62.3974,-128.941,376.396,89.2269
2.66,124.955,177.826,166.699,59.5675,-141.495,-627.706,89.3596
2.68,124.966,178.959,167.832,56.6509,-145.831,-216.821,89.4705
2.7,124.975,180.037,168.91,53.9194,-136.574,462.862,89.5685
2.72,124.982,181.059,169.933,51.1252,-139.713,-156.979,89.6507
2.74,124.987,182.025,170.898,48.2739,-142.566,-142.606,89.7215
2.76,124.991,182.934,171.808,45.4794,-139.722,142.201,89.7804
2.78,124.994,183.789,172.662,42.7089,-138.529,59.6249,89.8294
2.8,124.996,184.589,173.462,39.9951,-135.687,142.1,89.8718
2.82,124.997,185.316,174.189,36.3665,-181.431,-2287.17,89.9011
2.84,124.998,185.988,174.861,33.6149,-137.578,2192.62,89.9267
2.86,124.999,186.62,175.493,31.6042,-100.536,1852.09,89.9493
2.88,124.999,187.162,176.035,27.0877,-225.826,-6264.48,89.9617
2.9,125,187.673,176.546,25.5534,-76.7122,7455.7,89.9729
2.92,125,188.089,176.962,20.8018,-237.581,-8043.43,89.9804
2.94,125,188.505,177.378,20.8018,-2.20879e-07,11879,89.9879
2.96,125,188.714,177.587,10.4212,-519.031,-25951.6,89.9901
2.98,125,188.887,177.76,8.68298,-86.911,21606,89.9914
3,125,189.06,177.933,8.63167,-2.56545,4217.28,89.9928
3.02,125,189.233,178.106,8.63298,0.0654498,131.545,89.9941
3.04,125,189.405,178.278,8.63298,-1.92237e-09,-3.27249,89.9954
