"time","x","y","position","velocity","acceleration","jerk","heading"
0,20,55,0,0,0,0,0
0.02,20.1735,55,0.173549,8.67744,433.872,21693.6,0.00133206
0.04,20.3471,55,0.347097,8.67744,6.54451e-06,-21693.6,0.00266413
0.06,20.5206,55,0.520646,8.67744,-6.54592e-06,-0.000654521,0.00399619
0.08,20.6942,55,0.694195,8.67744,-1.41833e-09,0.000327225,0.00532825
0.1,20.8677,55,0.867744,8.67744,6.54311e-06,0.000327226,0.00666032
0.12,21.097,55,1.09699,11.4624,139.248,6962.41,0.00875357
0.14,21.5164,55.0001,1.51642,20.9714,475.451,16810.2,0.0134464
0.16,21.9357,55.0002,1.93575,20.9664,-0.250085,-23785.1,0.0181391
0.18,22.4628,55.0004,2.46277,26.3513,269.242,13474.6,0.0293129
0.2,23.0109,55.0007,3.01093,27.408,52.8381,-10820.2,0.0417671
0.22,23.6624,55.0012,3.66238,32.572,258.2,10268.1,0.0610202
0.24,24.3544,55.002,4.35441,34.602,101.497,-7835.15,0.0840875
0.26,25.1026,55.0033,5.10263,37.4105,140.429,1946.59,0.112773
0.28,25.9243,55.0052,5.92431,41.0844,183.693,2163.23,0.151682
0.3,26.8086,55.0078,6.80864,44.216,156.582,-1355.59,0.19682
0.32,27.7539,55.0114,7.7539,47.2633,152.36,-211.056,0.25472
0.34,28.7607,55.0164,8.76074,50.3421,153.943,79.1455,0.322063
0.36,29.8307,55.0232,9.83077,53.5014,157.965,201.065,0.40307
0.38,30.9634,55.032,10.9635,56.6374,156.801,-58.1749,0.497476
0.4,32.1587,55.0434,12.1589,59.7683,156.543,-12.9318,0.606766
0.42,33.4258,55.0582,13.426,63.3567,179.42,1143.89,0.736063
0.44,34.7551,55.0769,14.7555,66.4734,155.836,-1179.24,0.882898
0.46,36.1459,55.1003,16.1465,69.5494,153.797,-101.92,1.04904
0.48,37.607,55.1294,17.6079,73.0692,175.994,1109.82,1.24119
0.5,39.1323,55.1652,19.1335,76.2844,160.758,-761.797,1.45541
0.52,40.725,55.2089,20.7268,79.6646,169.012,412.732,1.69727
0.54,42.3767,55.2616,22.3794,82.6287,148.205,-1040.36,1.96644
0.56,44.0514,55.3232,24.0552,83.7911,58.1178,-4504.36,2.25804
0.58,45.7315,55.394,25.7368,84.0778,14.3343,-2189.17,2.56988
0.6,47.4168,55.4744,27.424,84.3621,14.2155,-5.9428,2.90306
0.62,49.1063,55.5651,29.1159,84.5955,11.669,-127.326,3.25412
0.64,50.8011,55.667,30.8139,84.8954,14.998,166.451,3.62817
0.66,52.5008,55.7805,32.5173,85.1746,13.9579,-52.0054,4.02327
0.68,54.2042,55.9063,34.2253,85.3991,11.2238,-136.702,4.43592
0.7,55.9132,56.0453,35.94,85.7338,16.7355,275.584,4.87408
0.72,57.6264,56.1982,37.66,86.0007,13.3458,-169.484,5.33238
0.74,59.3435,56.3657,39.3852,86.2604,12.9839,-18.0967,5.81043
0.76,61.0656,56.5484,41.117,86.588,16.3837,169.989,6.31399
0.78,62.7913,56.7472,42.8541,86.8572,13.4577,-146.299,6.8378
0.8,64.5211,56.9629,44.5973,87.1599,15.1329,83.7585,7.38478
0.82,66.2551,57.1963,46.347,87.4839,16.203,53.5041,7.95653
0.84,67.9923,57.4481,48.1023,87.7647,14.0395,-108.171,8.54992
0.86,69.7332,57.7193,49.8643,88.0991,16.7197,134.007,9.16838
0.88,71.4775,58.0107,51.6327,88.4197,16.031,-34.4312,9.81174
0.9,73.2245,58.3232,53.4074,88.738,15.9131,-5.8986,10.4793
0.92,74.9745,58.6577,55.1891,89.0821,17.205,64.5982,11.1733
0.94,76.7264,59.0151,56.9771,89.4031,16.0499,-57.7586,11.8917
0.96,78.4807,59.3963,58.7723,89.7574,17.7155,83.2795,12.6372
0.98,80.2366,59.8022,60.5745,90.1115,17.7064,-0.451527,13.4096
1,81.9934,60.2338,62.3836,90.4534,17.0943,-30.6064,14.2082
1.02,83.7513,60.6924,64.2003,90.8381,19.2327,106.919,15.0362
1.04,85.5086,61.1783,66.0236,91.1613,16.1621,-153.527,15.889
1.06,87.2663,61.6932,67.8551,91.5766,20.7653,230.157,16.7733
1.08,89.0219,62.2374,69.6931,91.9006,16.1982,-228.353,17.6827
1.1,90.7763,62.8124,71.5394,92.3123,20.5884,219.507,18.6234
1.12,92.5278,63.419,73.3929,92.6775,18.2566,-116.59,19.5919
1.14,94.2754,64.0581,75.2537,93.041,18.175,-4.07699,20.5881
1.16,96.0191,64.7309,77.1227,93.4469,20.2948,105.99,21.6156
1.18,97.7564,65.4376,78.9983,93.7813,16.7229,-178.594,22.6683
1.2,99.4879,66.18,80.8822,94.1963,20.7472,201.215,23.7531
1.22,101.211,66.9581,82.7728,94.5305,16.7105,-201.838,24.8632
1.24,102.925,67.7731,84.671,94.9091,18.9332,111.139,26.0022
1.26,104.629,68.6255,86.5759,95.2449,16.7875,-107.285,27.1672
1.28,106.321,69.516,88.4879,95.5982,17.6659,43.9171,28.3589
1.3,107.999,70.4449,90.4064,95.9277,16.4753,-59.5298,29.575
1.32,109.663,71.413,92.3315,96.252,16.2133,-13.1011,30.8165
1.34,111.31,72.4201,94.2619,96.5236,13.5836,-131.482,32.0789
1.36,112.939,73.4667,96.1983,96.8165,14.6408,52.8585,33.3643
1.38,114.548,74.5526,98.1393,97.0502,11.6856,-147.759,34.6677
1.4,116.136,75.678,100.085,97.2919,12.0842,19.9307,35.9899
1.42,117.701,76.8423,102.036,97.5293,11.871,-10.661,37.3278
1.44,119.24,78.0451,103.989,97.6882,7.94779,-196.161,38.6787
1.46,120.753,79.2861,105.946,97.8418,7.67702,-13.5388,40.042
1.48,122.237,80.5641,107.905,97.9219,4.00577,-183.562,41.413
1.5,123.692,81.8788,109.866,98.0465,6.23237,111.33,42.7921
1.52,125.116,83.2289,111.828,98.097,2.52509,-185.364,44.1745
1.54,126.507,84.6132,113.79,98.1174,1.01996,-75.2568,45.5587
1.56,127.864,86.0306,115.752,98.125,0.376001,-32.1978,46.9418
1.58,129.185,87.4795,117.713,98.0472,-3.8887,-213.235,48.3212
1.6,130.47,88.9585,119.673,97.9582,-4.45152,-28.141,49.6944
1.62,131.719,90.4661,121.63,97.8843,-3.69238,37.9571,51.0592
1.64,132.928,92.0005,123.584,97.6865,-9.89243,-310.002,52.4129
1.66,134.1,93.5601,125.535,97.5394,-7.35536,126.854,53.7536
1.68,135.233,95.1442,127.482,97.3719,-8.37252,-50.8582,55.0784
1.7,136.327,96.7491,129.424,97.112,-12.9975,-231.249,56.3863
1.72,137.381,98.374,131.361,96.8494,-13.1263,-6.43916,57.674
1.74,138.396,100.019,133.294,96.6248,-11.2304,94.795,58.9433
1.76,139.372,101.678,135.219,96.2605,-18.2138,-349.172,60.1863
1.78,140.308,103.355,137.14,96.0206,-11.9947,310.956,61.4102
1.8,141.206,105.044,139.052,95.6367,-19.1955,-360.042,62.6041
1.82,142.065,106.746,140.959,95.3233,-15.6708,176.239,63.7759
1.84,142.888,108.457,142.858,94.9542,-18.4546,-139.191,64.9188
1.86,143.673,110.179,144.75,94.6316,-16.1293,116.266,66.0356
1.88,144.422,111.909,146.635,94.2368,-19.7428,-180.675,67.1238
1.9,145.136,113.646,148.513,93.8853,-17.5729,108.492,68.1845
1.92,145.815,115.388,150.383,93.4964,-19.4444,-93.5739,69.2148
1.94,146.46,117.136,152.246,93.1513,-17.2555,109.446,70.2196
1.96,147.073,118.886,154.1,92.7184,-21.6443,-219.442,71.1913
1.98,147.654,120.64,155.948,92.411,-15.3723,313.602,72.139
2,148.205,122.395,157.787,91.9412,-23.4891,-405.84,73.0535
2.02,148.725,124.152,159.62,91.6216,-15.9829,375.307,73.9422
2.04,149.216,125.91,161.445,91.2707,-17.5422,-77.9636,74.8027
2.06,149.68,127.667,163.262,90.8673,-20.1697,-131.377,75.6333
2.08,150.117,129.425,165.074,90.5774,-14.496,283.688,76.4404
2.1,150.527,131.181,166.877,90.1372,-22.009,-375.649,77.215
2.12,150.913,132.936,168.674,89.8718,-13.2698,436.956,77.9676
2.14,151.275,134.688,170.463,89.4624,-20.4689,-359.955,78.6907
2.16,151.614,136.438,172.245,89.1017,-18.0378,121.559,79.3885
2.18,151.931,138.187,174.023,88.8593,-12.1176,296.01,80.0631
2.2,152.226,139.93,175.791,88.4217,-21.8831,-488.274,80.7086
2.22,152.501,141.673,177.555,88.2043,-10.87,550.655,81.3335
2.24,152.757,143.411,179.312,87.8332,-18.5559,-384.297,81.9317
2.26,152.994,145.145,181.062,87.5055,-16.3828,108.654,82.5059
2.28,153.213,146.876,182.807,87.2449,-13.0313,167.573,83.0606
2.3,153.414,148.603,184.545,86.9229,-16.0978,-153.321,83.5867
2.32,153.6,150.324,186.277,86.5952,-16.3883,-14.527,84.0933
2.34,153.771,152.044,188.005,86.3999,-9.76276,331.277,84.5791
2.36,153.926,153.757,189.725,85.9909,-20.4505,-534.389,85.0387
2.38,154.068,155.466,191.44,85.7588,-11.606,442.226,85.4804
2.4,154.197,157.171,193.15,85.5139,-12.2458,-31.9895,85.8997
2.42,154.312,158.871,194.854,85.1766,-16.8635,-230.886,86.2965
2.44,154.416,160.567,196.553,84.9482,-11.4192,272.217,86.6745
2.46,154.509,162.258,198.247,84.6876,-13.0288,-80.48,87.031
2.48,154.591,163.944,199.935,84.3947,-14.6485,-80.9819,87.3671
2.5,154.664,165.625,201.617,84.1122,-14.1237,26.2373,87.6832
2.52,154.727,167.3,203.293,83.8296,-14.1283,-0.227496,87.9791
2.54,154.781,168.951,204.946,82.6046,-61.2534,-2356.26,88.2512
2.56,154.826,170.538,206.533,79.3887,-160.793,-4976.97,88.4963
2.58,154.863,172.061,208.056,76.1323,-162.821,-101.422,88.7148
2.6,154.893,173.515,209.51,72.7243,-170.397,-378.812,88.9065
2.62,154.918,174.903,210.899,69.4452,-163.957,322.002,89.0772
2.64,154.938,176.23,212.226,66.3166,-156.43,376.397,89.2269
2.66,154.953,177.49,213.487,63.0416,-163.748,-365.908,89.3596
2.68,154.964,178.681,214.678,59.5543,-174.367,-530.982,89.4705
2.7,154.975,179.811,215.807,56.4851,-153.46,1045.37,89.5685
2.72,154.982,180.877,216.873,53.2772,-160.396,-346.783,89.6507
2.74,154.987,181.879,217.875,50.1274,-157.488,145.371,89.7215
2.76,154.991,182.82,218.816,47.0214,-155.299,109.477,89.7804
2.78,154.994,183.699,219.696,43.9917,-151.488,190.524,89.8294
2.8,154.996,184.521,220.518,41.1051,-144.327,358.084,89.8718
2.82,154.997,185.264,221.26,37.1336,-198.578,-2712.59,89.9011
2.84,154.998,185.95,221.946,34.2851,-142.422,2807.84,89.9267
2.86,154.999,186.594,222.59,32.1959,-104.463,1897.91,89.9493
2.88,154.999,187.142,223.138,27.4123,-239.178,-6735.72,89.9617
2.9,155,187.659,223.655,25.8467,-78.283,8044.74,89.9729
2.92,155,188.079,224.075,20.9982,-242.424,-8207.05,89.9804
2.94,155,188.499,224.495,20.9982,2.18814e-07,12121.2,89.9879
2.96,155,188.708,224.705,10.4788,-525.969,-26298.4,89.9901
2.98,155,188.883,224.879,8.71702,-88.089,21894,89.9914
3,155,189.056,225.052,8.66833,-2.43455,4282.72,89.9928
3.02,155,189.229,225.226,8.66702,-0.0654498,118.455,89.9941
3.04,155,189.403,225.399,8.66702,1.91465e-09,3.27249,89.9954
