"time","x","y","position","velocity","acceleration","jerk","heading"
0,10,268,0,0,0,0,1.58278e-06
0.02,10,268,3.28547e-07,1.64274e-05,0.000821368,0.0410684,1.40831e-08
0.04,10.0412,268,0.0412016,2.06006,103.002,5150.07,5.97288e-06
0.06,10.118,268,0.118011,3.84045,89.0194,-699.146,4.89453e-05
0.08,10.238,268,0.238042,6.00157,108.056,951.829,0.000198796
0.1,10.4061,268,0.406121,8.40396,120.12,603.186,0.00057721
0.12,10.6223,268,0.622283,10.8081,120.207,4.36322,0.00135085
0.14,10.8866,268,0.886572,13.2145,120.318,5.53664,0.0027312
0.16,11.199,268,1.19904,15.6235,120.451,6.65442,0.00497244
0.18,11.5598,268,1.55975,18.0356,120.605,7.70449,0.00836886
0.2,11.9688,268,1.96878,20.4511,120.778,8.67446,0.0132518
0.22,12.4262,268,2.42619,22.8705,120.969,9.54625,0.0199859
0.24,12.9321,268,2.93207,25.294,121.176,10.3238,0.0289655
0.26,13.4865,268.001,3.48651,27.722,121.397,11.0824,0.0406096
0.28,14.0896,268.001,4.0896,30.1544,121.623,11.259,0.0553569
0.3,14.7414,268.002,4.74143,32.5917,121.864,12.0797,0.0736608
0.32,15.4421,268.003,5.44211,35.0338,122.104,11.9789,0.0959828
0.34,16.1917,268.005,6.19172,37.4808,122.352,12.4027,0.122787
0.36,16.9904,268.006,6.99037,39.9325,122.582,11.5027,0.154532
0.38,17.8381,268.009,7.83815,42.3891,122.833,12.5562,0.191665
0.4,18.7351,268.012,8.73515,44.85,123.046,10.6301,0.234616
0.42,19.6814,268.016,9.68146,47.3153,123.264,10.943,0.283785
0.44,20.6771,268.022,10.6772,49.7848,123.473,10.4434,0.339541
0.46,21.7221,268.028,11.7222,52.2522,123.368,-5.26326,0.402211
0.48,22.8168,268.037,12.8169,54.7334,124.064,34.7864,0.472069
0.5,23.961,268.048,13.9611,57.2114,123.897,-8.34126,0.549337
0.52,25.1546,268.06,15.1548,59.6864,123.753,-7.20917,0.634169
0.54,26.3979,268.074,16.3982,62.1675,124.052,14.9412,0.726649
0.56,27.6908,268.092,17.6912,64.65,124.126,3.73969,0.826784
0.58,29.0331,268.113,19.0337,67.1255,123.777,-17.4845,0.934494
0.6,30.425,268.137,20.4258,69.6061,124.031,12.6925,1.04962
0.62,31.8664,268.165,21.8675,72.0832,123.853,-8.89834,1.17188
0.64,33.357,268.197,23.3584,74.549,123.291,-28.0609,1.30094
0.66,34.897,268.234,24.8988,77.0192,123.511,11.0069,1.43633
0.68,36.486,268.276,26.4884,79.4802,123.047,-23.2366,1.57749
0.7,38.124,268.322,28.127,81.9294,122.463,-29.1758,1.72374
0.72,39.8107,268.375,29.8146,84.3777,122.413,-2.48961,1.87432
0.74,41.5459,268.435,31.5508,86.8122,121.723,-34.5297,2.02833
0.76,43.3295,268.501,33.3356,89.2389,121.335,-19.3911,2.1848
0.78,45.1611,268.573,35.1687,91.6527,120.693,-32.0776,2.34262
0.8,47.0405,268.652,37.0497,94.0517,119.949,-37.2273,2.5006
0.82,48.9674,268.739,38.9785,96.4427,119.552,-19.8676,2.65744
0.84,50.9415,268.833,40.9549,98.817,118.714,-41.9,2.81173
0.86,52.9624,268.935,42.9784,101.174,117.834,-44.003,2.96195
0.88,55.0297,269.045,45.0486,103.512,116.915,-45.9332,3.10652
0.9,57.1432,269.162,47.1654,105.838,116.295,-30.9771,3.24371
0.92,59.3024,269.287,49.3281,108.138,114.982,-65.6472,3.3717
0.94,61.5069,269.419,51.5366,110.426,114.408,-28.7388,3.48859
0.96,63.7564,269.559,53.7904,112.69,113.204,-60.1831,3.59232
0.98,66.0503,269.704,56.0889,114.924,111.699,-75.247,3.68076
1,68.3833,269.856,58.4269,116.901,98.8781,-641.047,3.75149
1.02,70.7456,270.011,60.7943,118.37,73.4246,-1272.67,3.80207
1.04,73.127,270.171,63.181,119.336,48.3295,-1254.76,3.8303
1.06,75.5176,270.331,65.577,119.799,23.1242,-1260.27,3.83425
1.08,77.9078,270.491,67.9725,119.773,-1.31234,-1221.83,3.81235
1.1,80.2922,270.649,70.3622,119.485,-14.3923,-653.999,3.76328
1.12,82.6709,270.804,72.7459,119.186,-14.9368,-27.2227,3.68567
1.14,85.0436,270.954,75.1234,118.875,-15.5593,-31.1253,3.57814
1.16,87.4101,271.1,77.4943,118.545,-16.4816,-46.114,3.43919
1.18,89.77,271.239,79.8583,118.202,-17.1648,-34.1631,3.26727
1.2,92.1231,271.368,82.215,117.833,-18.424,-62.9581,3.0607
1.22,94.4692,271.489,84.5641,117.458,-18.7826,-17.9295,2.81768
1.24,96.8076,271.599,86.9052,117.051,-20.3365,-77.6963,2.53626
1.26,99.1383,271.695,89.2378,116.631,-21.0085,-33.5982,2.21433
1.28,101.46,271.777,91.5613,116.176,-22.7471,-86.9324,1.84961
1.3,103.773,271.844,93.8754,115.706,-23.503,-37.7958,1.43959
1.32,106.077,271.893,96.179,115.181,-26.2655,-138.125,0.981555
1.34,108.37,271.922,98.4726,114.679,-25.0553,60.5123,0.472525
1.36,110.652,271.93,100.755,114.102,-28.8665,-190.561,-0.0907443
1.38,112.922,271.915,103.025,113.499,-30.1544,-64.3939,-0.711796
1.4,115.179,271.874,105.282,112.871,-31.4004,-62.302,-1.39449
1.42,117.421,271.804,107.525,112.169,-35.1266,-186.311,-2.14302
1.44,119.647,271.705,109.753,111.394,-38.7351,-180.423,-2.96193
1.46,121.856,271.574,111.966,110.646,-37.3777,67.8677,-3.85613
1.48,124.045,271.408,114.162,109.788,-42.9021,-276.216,-4.83087
1.5,126.214,271.204,116.34,108.914,-43.6881,-39.3012,-5.89174
1.52,128.358,270.962,118.498,107.889,-51.2628,-378.737,-7.04463
1.54,130.478,270.677,120.636,106.921,-48.422,142.041,-8.29566
1.56,132.567,270.347,122.752,105.773,-57.3868,-448.24,-9.65106
1.58,134.626,269.97,124.845,104.659,-55.7026,84.2089,-11.117
1.6,136.651,269.544,126.914,103.458,-60.0458,-217.157,-12.6995
1.62,138.637,269.065,128.957,102.139,-65.9518,-295.299,-14.4039
1.64,140.581,268.533,130.973,100.781,-67.9189,-98.3571,-16.2346
1.66,142.482,267.945,132.963,99.4931,-64.3779,177.049,-18.1949
1.68,144.335,267.299,134.924,98.0924,-70.0345,-282.828,-20.2859
1.7,146.137,266.594,136.86,96.7583,-66.7032,166.566,-22.5063
1.72,147.885,265.827,138.768,95.4439,-65.7239,48.9637,-24.8519
1.74,149.576,264.999,140.652,94.1809,-63.1493,128.728,-27.3147
1.76,151.211,264.108,142.514,93.0795,-55.0684,404.044,-29.883
1.78,152.788,263.154,144.357,92.1686,-45.545,476.171,-32.5408
1.8,154.306,262.134,146.186,91.4475,-36.0549,474.505,-35.2686
1.82,155.765,261.048,148.004,90.9061,-27.069,449.297,-38.0434
1.84,157.166,259.896,149.818,90.7059,-10.0131,852.794,-40.8403
1.86,158.51,258.676,151.633,90.7515,2.28359,614.835,-43.6331
1.88,159.796,257.387,153.454,91.0616,15.5053,661.083,-46.3964
1.9,161.029,256.031,155.287,91.616,27.7188,610.678,-49.1063
1.92,162.205,254.607,157.134,92.3752,37.9617,512.145,-51.7418
1.94,163.329,253.115,159.002,93.3638,49.4294,573.384,-54.2856
1.96,164.399,251.558,160.891,94.4584,54.7258,264.821,-56.7242
1.98,165.415,249.937,162.804,95.6514,59.6525,246.332,-59.0482
2,166.379,248.256,164.742,96.927,63.7816,206.456,-61.252
2.02,167.292,246.516,166.707,98.2213,64.7145,46.6451,-63.3329
2.04,168.154,244.723,168.696,99.4738,62.6255,-104.447,-65.2912
2.06,168.966,242.879,170.711,100.748,63.6833,52.8884,-67.1292
2.08,169.73,240.988,172.75,101.962,60.7244,-147.943,-68.8506
2.1,170.447,239.055,174.813,103.123,58.0263,-134.905,-70.4604
2.12,171.119,237.081,176.898,104.248,56.2553,-88.5535,-71.9642
2.14,171.745,235.07,179.004,105.285,51.8685,-219.341,-73.3679
2.16,172.331,233.026,181.13,106.326,52.0314,8.14848,-74.6775
2.18,172.875,230.952,183.274,107.187,43.0728,-447.93,-75.899
2.2,173.38,228.85,185.436,108.092,45.2534,109.029,-77.0384
2.22,173.849,226.725,187.612,108.84,37.3773,-393.803,-78.1011
2.24,174.282,224.575,189.805,109.633,39.6477,113.518,-79.0924
2.26,174.682,222.406,192.011,110.304,33.5892,-302.924,-80.0171
2.28,175.049,220.223,194.225,110.692,19.379,-710.512,-80.878
2.3,175.383,218.036,196.437,110.607,-4.26418,-1182.16,-81.6766
2.32,175.688,215.857,198.637,110.003,-30.1637,-1294.97,-82.4148
2.34,175.963,213.696,200.815,108.908,-54.7884,-1231.24,-83.0948
2.36,176.209,211.563,202.963,107.362,-77.262,-1123.68,-83.7191
2.38,176.43,209.465,205.072,105.467,-94.7511,-874.457,-84.2914
2.4,176.626,207.404,207.143,103.545,-96.1441,-69.6491,-84.8164
2.42,176.8,205.379,209.175,101.599,-97.2808,-56.8342,-85.2981
2.44,176.956,203.393,211.168,99.6394,-97.9785,-34.8888,-85.7402
2.46,177.094,201.445,213.12,97.6053,-101.704,-186.259,-86.146
2.48,177.216,199.537,215.032,95.6031,-100.111,79.6608,-86.5184
2.5,177.324,197.671,216.901,93.4845,-105.93,-291,-86.86
2.52,177.42,195.846,218.728,91.3487,-106.789,-42.9041,-87.1733
2.54,177.503,194.062,220.514,89.2927,-102.801,199.379,-87.4605
2.56,177.576,192.322,222.256,87.0763,-110.819,-400.915,-87.7235
2.58,177.641,190.625,223.955,84.9427,-106.678,207.064,-87.9641
2.6,177.696,188.97,225.611,82.796,-107.336,-32.9063,-88.1839
2.62,177.744,187.36,227.221,80.5346,-113.07,-286.684,-88.3846
2.64,177.786,185.793,228.789,78.3645,-108.504,228.284,-88.5674
2.66,177.821,184.271,230.311,76.1293,-111.76,-162.795,-88.7337
2.68,177.852,182.793,231.789,73.8867,-112.129,-18.4345,-88.8846
2.7,177.878,181.361,233.221,71.63,-112.835,-35.2981,-89.0213
2.72,177.9,179.974,234.609,69.3671,-113.147,-15.5901,-89.1447
2.74,177.919,178.632,235.951,67.0911,-113.802,-32.7654,-89.256
2.76,177.935,177.336,237.247,64.8087,-114.119,-15.8372,-89.3559
2.78,177.948,176.086,238.497,62.5171,-114.579,-23.0068,-89.4453
2.8,177.958,174.882,239.702,60.2179,-114.964,-19.2486,-89.525
2.82,177.967,173.722,240.861,57.9603,-112.878,104.304,-89.5958
2.84,177.975,172.61,241.973,55.5969,-118.169,-264.583,-89.6583
2.86,177.981,171.545,243.038,53.2749,-116.102,103.346,-89.7133
2.88,177.985,170.526,244.057,50.9467,-116.41,-15.3583,-89.7614
2.9,177.989,169.553,245.03,48.6627,-114.2,110.455,-89.8032
2.92,177.992,168.627,245.956,46.2722,-119.524,-266.17,-89.8393
2.94,177.994,167.749,246.834,43.9265,-117.284,112.005,-89.8702
2.96,177.996,166.917,247.666,41.5758,-117.539,-12.7534,-89.8964
2.98,177.997,166.132,248.451,39.2696,-115.305,111.674,-89.9184
3,177.998,165.395,249.188,36.8573,-120.615,-265.483,-89.9368
3.02,177.999,164.705,249.878,34.4919,-118.272,117.147,-89.9519
3.04,177.999,164.062,250.521,32.1222,-118.483,-10.568,-89.9641
3.06,177.999,163.467,251.117,29.7984,-116.191,114.618,-89.9738
3.08,178,162.919,251.664,27.3705,-121.398,-260.358,-89.9814
3.1,178,162.419,252.164,24.9893,-119.06,116.918,-89.9872
3.12,178,161.967,252.616,22.605,-119.215,-7.73994,-89.9915
3.14,178,161.562,253.021,20.2675,-116.872,117.146,-89.9946
3.16,178,161.205,253.378,17.827,-122.029,-257.854,-89.9968
3.18,178,160.897,253.687,15.4353,-119.581,122.382,-89.9982
3.2,178,160.636,253.947,13.0406,-119.738,-7.85398,-89.9991
3.22,178,160.422,254.161,10.6948,-117.291,122.382,-89.9996
3.24,178,160.257,254.326,8.24686,-122.395,-255.236,-89.9999
3.26,178,160.14,254.443,5.84895,-119.895,125,-90
3.28,178,160.065,254.518,3.75,-104.948,747.382,-90
3.3,178,160.023,254.56,2.1,-82.5,1122.38,-90
3.32,178,160.005,254.578,0.9,-60,1125,-90
3.34,178,160,254.583,0.25,-32.5,1375,-90
3.36,178,160,254.583,0,-12.5,1000,-90
