"time","x","y","position","velocity","acceleration","jerk","heading"
0,10,267.977,0,0,0,0,1.58436e-06
0.02,10,267.977,3.28883e-07,1.64442e-05,0.000822208,0.0411104,1.40589e-08
0.04,10.0412,267.977,0.0412016,2.06006,103.002,5150.07,5.98142e-06
0.06,10.118,267.977,0.118011,3.84045,89.0194,-699.145,4.90107e-05
0.08,10.238,267.977,0.238042,6.00157,108.056,951.831,0.000199057
0.1,10.4061,267.977,0.406121,8.40397,120.12,603.19,0.000577961
0.12,10.6223,267.977,0.622284,10.8081,120.207,4.36884,0.0013526
0.14,10.8866,267.978,0.886575,13.2146,120.323,5.78051,0.00273474
0.16,11.199,267.978,1.19904,15.6235,120.447,6.18979,0.00497888
0.18,11.5598,267.978,1.55976,18.0356,120.606,7.95093,0.00837969
0.2,11.9688,267.978,1.96878,20.4512,120.779,8.68467,0.0132689
0.22,12.4262,267.978,2.42619,22.8706,120.971,9.56327,0.0200118
0.24,12.9321,267.978,2.93208,25.2942,121.177,10.3335,0.0290031
0.26,13.4865,267.978,3.48652,27.7221,121.397,10.9825,0.0406623
0.28,14.0896,267.979,4.08961,30.1547,121.629,11.6076,0.0554288
0.3,14.7414,267.98,4.74145,32.592,121.865,11.774,0.0737566
0.32,15.4421,267.981,5.44213,35.0341,122.107,12.0988,0.0961078
0.34,16.1917,267.982,6.19176,37.4811,122.35,12.1639,0.122947
0.36,16.9904,267.984,6.99042,39.933,122.595,12.2752,0.154734
0.38,17.8382,267.986,7.8382,42.3895,122.824,11.4577,0.191916
0.4,18.7352,267.99,8.73522,44.8508,123.067,12.104,0.234923
0.42,19.6815,267.994,9.68154,47.316,123.26,9.6647,0.284158
0.44,20.6772,267.999,10.6772,49.7853,123.464,10.2111,0.339989
0.46,21.7222,268.006,11.7223,52.2533,123.402,-3.1049,0.402742
0.48,22.8169,268.014,12.817,54.734,124.034,31.6078,0.472694
0.5,23.9611,268.025,13.9612,57.2125,123.922,-5.61306,0.550066
0.52,25.1548,268.037,15.155,59.6876,123.759,-8.16636,0.635013
0.54,26.3981,268.052,16.3984,62.1694,124.086,16.3959,0.727618
0.56,27.691,268.069,17.6914,64.6507,124.069,-0.889034,0.82789
0.58,29.0334,268.091,19.034,67.1278,123.856,-10.6239,0.935749
0.6,30.4253,268.114,20.4261,69.6069,123.952,4.78642,1.05103
0.62,31.8668,268.143,21.8678,72.086,123.957,0.262811,1.17347
0.64,33.3574,268.174,23.3588,74.5498,123.189,-38.4077,1.30271
0.66,34.8974,268.212,24.8993,77.0224,123.631,22.0928,1.43829
0.68,36.4865,268.254,26.4889,79.4823,122.992,-31.9603,1.57965
0.7,38.1245,268.3,28.1275,81.9316,122.468,-26.1589,1.72611
0.72,39.8112,268.353,29.8151,84.38,122.419,-2.48955,1.87691
0.74,41.5465,268.413,31.5514,86.8147,121.733,-34.268,2.03116
0.76,43.3301,268.479,33.3363,89.2413,121.33,-20.1765,2.18786
0.78,45.1618,268.551,35.1694,91.6553,120.704,-31.2923,2.34593
0.8,47.0412,268.63,37.0504,94.0543,119.949,-37.7508,2.50416
0.82,48.9682,268.718,38.9794,96.4476,119.664,-14.2309,2.66125
0.84,50.9423,268.811,40.9557,98.8174,118.487,-58.8597,2.8158
0.86,52.9632,268.914,42.9792,101.174,117.839,-32.3858,2.9663
0.88,55.0307,269.024,45.0496,103.52,117.278,-28.0908,3.11113
0.9,57.1441,269.141,47.1663,105.836,115.801,-73.8149,3.24859
0.92,59.3034,269.266,49.3292,108.145,115.487,-15.7242,3.37686
0.94,61.5079,269.398,51.5377,110.423,113.898,-79.4407,3.49401
0.96,63.7575,269.538,53.7916,112.693,113.469,-21.4399,3.59803
0.98,66.0514,269.684,56.0902,114.93,111.847,-81.1112,3.68674
1,68.3846,269.836,58.4282,116.904,98.7196,-656.367,3.75774
1.02,70.7468,269.993,60.7957,118.371,73.3401,-1268.97,3.80859
1.04,73.1282,270.152,63.1824,119.339,48.4035,-1246.83,3.83707
1.06,75.5189,270.312,65.5785,119.802,23.1294,-1263.71,3.84128
1.08,77.9091,270.473,67.9741,119.779,-1.14515,-1213.73,3.81964
1.1,80.2936,270.631,70.3638,119.487,-14.5752,-671.503,3.7708
1.12,82.6723,270.786,72.7476,119.189,-14.9263,-17.5546,3.69344
1.14,85.045,270.936,75.125,118.872,-15.8245,-44.9092,3.58613
1.16,87.4115,271.083,77.496,118.551,-16.0784,-12.6964,3.4474
1.18,89.7715,271.221,79.8601,118.201,-17.4648,-69.3203,3.2757
1.2,92.1246,271.351,82.2168,117.838,-18.1449,-34.0013,3.06934
1.22,94.4706,271.473,84.566,117.457,-19.0521,-45.3621,2.82651
1.24,96.8092,271.583,86.9071,117.058,-19.9605,-45.422,2.54529
1.26,99.1398,271.68,89.2397,116.63,-21.4096,-72.4515,2.22355
1.28,101.462,271.762,91.5637,116.198,-21.6068,-9.86346,1.85901
1.3,103.775,271.83,93.8779,115.709,-24.4352,-141.42,1.44916
1.32,106.079,271.879,96.1815,115.182,-26.3395,-95.2131,0.991292
1.34,108.372,271.908,98.4751,114.681,-25.0595,64.0015,0.482421
1.36,110.654,271.917,100.757,114.104,-28.8627,-190.159,-0.0806989
1.38,112.924,271.901,103.027,113.501,-30.1507,-64.4007,-0.70161
1.4,115.18,271.861,105.284,112.822,-33.9659,-190.764,-1.38417
1.42,117.422,271.792,107.527,112.168,-32.6709,64.7542,-2.13259
1.44,119.649,271.693,109.756,111.445,-36.161,-174.509,-2.95139
1.46,121.858,271.562,111.969,110.647,-39.8858,-186.236,-3.8455
1.48,124.048,271.396,114.165,109.785,-43.1016,-160.791,-4.82017
1.5,126.215,271.194,116.342,108.861,-46.2314,-156.492,-5.88099
1.52,128.361,270.951,118.501,107.939,-46.0725,7.94646,-7.03386
1.54,130.48,270.667,120.639,106.914,-51.2546,-259.103,-8.2849
1.56,132.569,270.337,122.754,105.773,-57.0698,-290.762,-9.64034
1.58,134.628,269.961,124.847,104.658,-55.7445,66.2628,-11.1064
1.6,136.653,269.535,126.916,103.447,-60.5502,-240.284,-12.689
1.62,138.639,269.058,128.959,102.125,-66.0741,-276.194,-14.3936
1.64,140.584,268.525,130.976,100.839,-64.3151,87.951,-16.2246
1.66,142.484,267.937,132.964,99.4284,-70.5241,-310.453,-18.1851
1.68,144.336,267.292,134.926,98.0882,-67.0119,175.612,-20.2765
1.7,146.138,266.586,136.861,96.7531,-66.7555,12.8204,-22.4974
1.72,147.886,265.82,138.769,95.4185,-66.7275,1.39984,-24.8435
1.74,149.579,264.993,140.653,94.1965,-61.1032,281.216,-27.307
1.76,151.214,264.103,142.515,93.0732,-56.1633,246.993,-29.8759
1.78,152.79,263.147,144.359,92.1861,-44.3546,590.439,-32.5345
1.8,154.308,262.128,146.187,91.4112,-38.7443,280.512,-35.2631
1.82,155.767,261.043,148.005,90.8967,-25.7271,650.863,-38.0388
1.84,157.168,259.89,149.819,90.7371,-7.97789,887.458,-40.8364
1.86,158.512,258.67,151.634,90.7421,0.24839,411.314,-43.6301
1.88,159.799,257.383,153.455,91.0179,13.789,677.029,-46.3942
1.9,161.03,256.026,155.287,91.6121,29.7097,796.034,-49.1048
1.92,162.207,254.602,157.134,92.3612,37.4573,387.383,-51.741
1.94,163.331,253.11,159.002,93.3975,51.8134,717.803,-54.2854
1.96,164.399,251.553,160.891,94.4248,51.3658,-22.3768,-56.7245
1.98,165.417,249.933,162.803,95.6304,60.2789,445.655,-59.049
2,166.381,248.252,164.742,96.9239,64.675,219.803,-61.2531
2.02,167.293,246.513,166.706,98.1949,63.5526,-56.1207,-63.3343
2.04,168.156,244.719,168.695,99.4934,64.9225,68.4971,-65.2928
2.06,168.968,242.875,170.71,100.745,62.6006,-116.097,-67.131
2.08,169.732,240.985,172.75,101.961,60.7768,-91.1892,-68.8525
2.1,170.449,239.05,174.813,103.168,60.3706,-20.311,-70.4624
2.12,171.12,237.076,176.898,104.232,53.1587,-360.595,-71.9662
2.14,171.747,235.066,179.004,105.3,53.4174,12.9382,-73.3699
2.16,172.331,233.022,181.129,106.264,48.1957,-261.085,-74.6795
2.18,172.875,230.948,183.274,107.234,48.5301,16.7175,-75.9011
2.2,173.381,228.847,185.434,108.045,40.5092,-401.046,-77.0404
2.22,173.85,226.72,187.612,108.89,42.2494,87.011,-78.103
2.24,174.283,224.571,189.805,109.634,37.2064,-252.15,-79.0942
2.26,174.683,222.401,192.011,110.303,33.4845,-186.095,-80.019
2.28,175.051,220.212,194.23,110.976,33.6434,7.94525,-80.8818
2.3,175.388,218.007,196.461,111.551,28.7319,-245.574,-81.6868
2.32,175.697,215.786,198.704,112.13,28.9696,11.8815,-82.438
2.34,175.98,213.55,200.957,112.658,26.374,-129.778,-83.1389
2.36,176.237,211.302,203.22,113.132,23.7355,-131.926,-83.7927
2.38,176.471,209.042,205.493,113.652,25.9902,112.735,-84.4024
2.4,176.682,206.771,207.773,114.014,18.1103,-393.991,-84.9706
2.42,176.872,204.489,210.063,114.471,22.8474,236.855,-85.4998
2.44,177.042,202.199,212.359,114.824,17.6369,-260.524,-85.9922
2.46,177.194,199.9,214.664,115.219,19.761,106.203,-86.4497
2.48,177.329,197.593,216.975,115.561,17.0849,-133.803,-86.874
2.5,177.448,195.278,219.293,115.893,16.6086,-23.8167,-87.2669
2.52,177.55,192.956,221.617,116.218,16.23,-18.9303,-87.6297
2.54,177.64,190.628,223.947,116.491,13.6358,-129.707,-87.9637
2.56,177.716,188.293,226.283,116.809,15.8966,113.038,-88.2699
2.58,177.782,185.952,228.624,117.07,13.0676,-141.45,-88.5494
2.6,177.836,183.606,230.971,117.327,12.851,-10.8313,-88.8029
2.62,177.88,181.254,233.324,117.631,15.2256,118.734,-89.0311
2.64,177.916,178.898,235.68,117.832,10.0392,-259.323,-89.2347
2.66,177.944,176.535,238.043,118.131,14.9185,243.964,-89.414
2.68,177.964,174.168,240.41,118.378,12.3877,-126.538,-89.5693
2.7,177.979,171.795,242.783,118.624,12.2968,-4.54682,-89.7009
2.72,177.989,169.418,245.16,118.872,12.3965,4.98782,-89.8087
2.74,177.996,167.036,247.543,119.12,12.3827,-0.690729,-89.8928
2.76,177.999,164.648,249.93,119.37,12.4932,5.52234,-89.953
2.78,178,162.256,252.323,119.624,12.7193,11.3055,-89.9889
2.8,178,159.897,254.681,117.934,-84.5153,-4861.73,-90
2.82,178,157.5,257.078,119.857,96.1386,9032.7,-90.0137
2.84,177.999,155.108,259.47,119.599,-12.88,-5450.93,-90.052
2.86,177.995,152.721,261.857,119.344,-12.768,5.60063,-90.1147
2.88,177.989,150.339,264.239,119.095,-12.4512,15.8383,-90.2012
2.9,177.978,147.962,266.616,118.846,-12.4174,1.6927,-90.3115
2.92,177.962,145.59,268.988,118.599,-12.339,3.9202,-90.4455
2.94,177.941,143.223,271.355,118.353,-12.3429,-0.196095,-90.6033
2.96,177.912,140.861,273.717,118.106,-12.3281,0.741227,-90.785
2.98,177.876,138.506,276.073,117.806,-15.0005,-133.623,-90.9911
3,177.831,136.154,278.425,117.605,-10.0442,247.818,-91.2219
3.02,177.775,133.809,280.771,117.302,-15.1563,-255.609,-91.478
3.04,177.71,131.469,283.112,117.042,-13.02,106.817,-91.7602
3.06,177.632,129.134,285.448,116.781,-13.0372,-0.857649,-92.0692
3.08,177.541,126.807,287.777,116.464,-15.838,-140.042,-92.4061
3.1,177.436,124.485,290.101,116.191,-13.6591,108.945,-92.7719
3.12,177.315,122.172,292.417,115.816,-18.7435,-254.221,-93.1679
3.14,177.18,119.866,294.728,115.528,-14.381,218.124,-93.5956
3.16,177.026,117.567,297.032,115.189,-16.9524,-128.57,-94.0566
3.18,176.854,115.277,299.328,114.794,-19.7716,-140.959,-94.5526
3.2,176.661,112.997,301.616,114.443,-17.5405,111.554,-95.0857
3.22,176.448,110.727,303.896,113.981,-23.1139,-278.668,-95.658
3.24,176.213,108.468,306.167,113.568,-20.6498,123.205,-96.272
3.26,175.953,106.221,308.429,113.1,-23.3717,-136.094,-96.9305
3.28,175.667,103.987,310.682,112.624,-23.8052,-21.6752,-97.6364
3.3,175.355,101.768,312.923,112.053,-28.5645,-237.965,-98.3929
3.32,175.014,99.5632,315.153,111.519,-26.7046,92.9941,-99.2036
3.34,174.643,97.3763,317.372,110.911,-30.3713,-183.335,-100.072
3.36,174.24,95.2087,319.576,110.24,-33.5838,-160.626,-101.004
3.38,173.803,93.0618,321.767,109.543,-34.824,-62.0097,-102.002
3.4,173.331,90.9377,323.943,108.797,-37.3301,-125.305,-103.072
3.42,172.822,88.8388,326.103,107.989,-40.4056,-153.776,-104.219
3.44,172.274,86.7679,328.245,107.113,-43.7602,-167.727,-105.449
3.46,171.684,84.7274,330.369,106.195,-45.9022,-107.103,-106.768
3.48,171.053,82.7206,332.473,105.181,-50.7249,-241.134,-108.182
3.5,170.378,80.7504,334.555,104.136,-52.2225,-74.8826,-109.696
3.52,169.656,78.8202,336.616,103.039,-54.8487,-131.31,-111.316
3.54,168.887,76.9338,338.653,101.856,-59.1568,-215.401,-113.049
3.56,168.07,75.0948,340.665,100.606,-62.5125,-167.788,-114.899
3.58,167.203,73.3069,342.653,99.3699,-61.8074,35.2584,-116.87
3.6,166.285,71.5734,344.614,98.0721,-64.8892,-154.092,-118.963
3.62,165.315,69.898,346.55,96.7867,-64.2731,30.8031,-121.179
3.64,164.293,68.2837,348.461,95.5373,-62.4709,90.1144,-123.515
3.66,163.218,66.7328,350.348,94.3421,-59.7587,135.608,-125.964
3.68,162.09,65.2479,352.213,93.2472,-54.7449,250.691,-128.518
3.7,160.908,63.8303,354.058,92.2966,-47.5273,360.881,-131.162
3.72,159.67,62.4806,355.89,91.5596,-36.85,533.861,-133.878
3.74,158.378,61.1993,357.71,90.9957,-28.1953,432.736,-136.645
3.76,157.028,59.9861,359.524,90.7405,-12.7643,771.551,-139.44
3.78,155.621,58.8405,361.339,90.7207,-0.985459,588.942,-142.236
3.8,154.156,57.7614,363.158,90.9684,12.3823,668.386,-145.007
3.82,152.633,56.7482,364.988,91.4769,25.4262,652.197,-147.729
3.84,151.051,55.7997,366.832,92.2375,38.0284,630.113,-150.378
3.86,149.41,54.9151,368.696,93.1822,47.236,460.378,-152.937
3.88,147.711,54.0932,370.583,94.3685,59.3139,603.897,-155.388
3.9,145.959,53.3333,372.494,95.5109,57.1224,-109.579,-157.722
3.92,144.152,52.6338,374.431,96.8824,68.5744,572.602,-159.929
3.94,142.294,51.9935,376.396,98.2425,68.0037,-28.5336,-162.007
3.96,140.389,51.4109,378.388,99.6103,68.3888,19.2511,-163.954
3.98,138.44,50.8841,380.408,100.969,67.9447,-22.2014,-165.772
4,136.449,50.4111,382.453,102.285,65.7754,-108.468,-167.464
4.02,134.421,49.9897,384.525,103.56,63.7576,-100.887,-169.035
4.04,132.36,49.6177,386.619,104.731,58.5718,-259.289,-170.489
4.06,130.267,49.2926,388.738,105.937,60.3081,86.8113,-171.834
4.08,128.145,49.012,390.878,106.991,52.6995,-380.426,-173.075
4.1,125.998,48.7732,393.038,108.016,51.2141,-74.2745,-174.218
4.12,123.827,48.5738,395.218,108.987,48.5662,-132.391,-175.27
4.14,121.635,48.4114,397.416,109.902,45.7449,-141.065,-176.237
4.16,119.425,48.2835,399.63,110.722,41.0285,-235.824,-177.123
4.18,117.198,48.1876,401.86,111.458,36.7687,-212.991,-177.935
4.2,114.954,48.1215,404.104,112.232,38.7036,96.7474,-178.677
4.22,112.695,48.0828,406.363,112.939,35.3327,-168.546,-179.353
4.24,110.424,48.0696,408.634,113.562,31.1614,-208.566,-179.968
4.26,108.141,48.0796,410.917,114.158,29.8001,-68.0646,179.474
4.28,105.847,48.111,413.212,114.733,28.7769,-51.1581,178.97
4.3,103.543,48.1617,415.517,115.235,25.0954,-184.074,178.517
4.32,101.228,48.2299,417.832,115.761,26.284,59.4304,178.112
4.34,98.9053,48.314,420.157,116.229,23.3833,-145.035,177.752
4.36,96.574,48.4122,422.49,116.666,21.8812,-75.1078,177.434
4.38,94.2348,48.5228,424.832,117.093,21.3295,-27.5815,177.156
4.4,91.8881,48.6444,427.182,117.493,20.009,-66.0297,176.917
4.42,89.5342,48.7755,429.539,117.875,19.0853,-46.1817,176.714
4.44,87.1737,48.9146,431.904,118.233,17.9195,-58.2898,176.545
4.46,84.8065,49.0605,434.275,118.583,17.5173,-20.1123,176.41
4.48,82.4332,49.2117,436.653,118.903,15.9907,-76.3285,176.305
4.5,80.0538,49.3669,439.038,119.225,16.0784,4.38385,176.231
4.52,77.6689,49.5251,441.428,119.506,14.0485,-101.492,176.184
4.54,75.2788,49.685,443.824,119.774,13.3967,-32.591,176.165
4.56,72.8892,49.8452,446.218,119.746,-1.39433,-739.552,176.171
4.58,70.51,50.0038,448.603,119.228,-25.8906,-1224.81,176.202
4.6,68.1509,50.1595,450.967,118.21,-50.8909,-1250.02,176.255
4.62,65.8222,50.3105,453.301,116.677,-76.6678,-1288.84,176.327
4.64,63.5333,50.4556,455.594,114.676,-100.062,-1169.73,176.417
4.66,61.289,50.5941,457.843,112.431,-112.24,-608.907,176.522
4.68,59.0895,50.7256,460.046,110.17,-113.05,-40.4989,176.64
4.7,56.9353,50.8496,462.204,107.887,-114.135,-54.2038,176.769
4.72,54.827,50.9661,464.316,105.579,-115.419,-64.2059,176.907
4.74,52.7649,51.075,466.381,103.25,-116.436,-50.8844,177.052
4.76,50.7491,51.1761,468.399,100.916,-116.704,-13.3665,177.203
4.78,48.7801,51.2696,470.37,98.5574,-117.928,-61.2292,177.358
4.8,46.8587,51.3557,472.293,96.1683,-119.453,-76.2174,177.514
4.82,44.9846,51.4345,474.169,93.7859,-119.121,16.5688,177.672
4.84,43.1583,51.5063,475.997,91.3888,-119.853,-36.5739,177.83
4.86,41.38,51.5712,477.776,88.9717,-120.856,-50.1473,177.986
4.88,39.6501,51.6297,479.507,86.5462,-121.277,-21.0525,178.14
4.9,37.9689,51.6821,481.189,84.1008,-122.268,-49.584,178.29
4.92,36.3362,51.7287,482.823,81.6666,-121.709,27.9511,178.436
4.94,34.7528,51.7701,484.407,79.1976,-123.452,-87.1482,178.576
4.96,33.2182,51.8064,485.942,76.7497,-122.392,53.0144,178.711
4.98,31.7329,51.8381,487.427,74.2826,-123.359,-48.3423,178.84
5,30.2972,51.8656,488.863,71.8,-124.127,-38.4098,178.961
5.02,28.9108,51.8894,490.25,69.3289,-123.559,28.4071,179.075
5.04,27.5739,51.9098,491.587,66.8531,-123.787,-11.4119,179.182
5.06,26.2864,51.927,492.875,64.3828,-123.514,13.6732,179.282
5.08,25.0485,51.9415,494.113,61.8976,-124.261,-37.3602,179.374
5.1,23.8603,51.9537,495.301,59.4127,-124.245,0.805663,179.458
5.12,22.7218,51.9636,496.439,56.928,-124.236,0.458123,179.534
5.14,21.6326,51.9718,497.529,54.4591,-123.446,39.4899,179.603
5.16,20.5931,51.9785,498.568,51.9803,-123.938,-24.6323,179.665
5.18,19.6028,51.9838,499.558,49.5116,-123.434,25.2384,179.72
5.2,18.6619,51.9879,500.499,47.0486,-123.154,14.0072,179.769
5.22,17.7705,51.9912,501.391,44.5701,-123.922,-38.4397,179.811
5.24,16.928,51.9937,502.233,42.1226,-122.375,77.3777,179.848
5.26,16.1348,51.9956,503.026,39.6597,-123.144,-38.4846,179.879
5.28,15.3905,51.997,503.771,37.2178,-122.097,52.3834,179.906
5.3,14.6953,51.998,504.466,34.7604,-122.87,-38.6343,179.928
5.32,14.0488,51.9987,505.112,32.3235,-121.845,51.2124,179.946
5.34,13.4512,51.9992,505.71,29.8816,-122.095,-12.4785,179.96
5.36,12.902,51.9995,506.259,27.4607,-121.048,52.3653,179.972
5.38,12.4016,51.9997,506.76,25.0188,-122.095,-52.3492,179.98
5.4,11.9495,51.9999,507.212,22.6033,-120.774,66.0456,179.987
5.42,11.5458,51.9999,507.615,20.1874,-120.797,-1.18602,179.992
5.44,11.1904,52,507.971,17.7664,-121.047,-12.4927,179.995
5.46,10.8833,52,508.278,15.3559,-120.524,26.1764,179.997
5.48,10.6243,52,508.537,12.9509,-120.25,13.6817,179.999
5.5,10.4136,52,508.748,10.535,-120.797,-27.3599,179.999
5.52,10.2507,52,508.911,8.14547,-119.476,66.0398,180
5.54,10.1355,52,509.026,5.76,-119.274,10.1401,180
5.56,10.0624,52,509.099,3.655,-105.25,701.18,180
5.58,10.0219,52,509.139,2.025,-81.5,1187.5,180
5.6,10.0043,52,509.157,0.88,-57.25,1212.5,180
5.62,10,52,509.161,0.215,-33.25,1200,180
5.64,10,52,509.161,0,-10.75,1125,180
